0,0.09
0,0.077
0.001,0.077
0.001,0.073
0.001,0.072
0.001,0.067
0.002,0.068
0.002,0.092
0.002,0.095
0.002,0.203
0.003,0.21
0.003,0.772
0.003,0.833
0.003,-0.438
0.004,-0.42
0.004,0.04
0.004,0.06
0.004,0.25
0.004,0.21
0.005,-0.602
0.005,-0.637
0.005,-1.192
0.005,-1.19
0.006,-0.75
0.006,-0.722
0.006,-0.15
0.006,-0.132
0.007,0.118
0.007,0.123
0.007,0.16
0.007,0.153
0.008,0.027
0.008,0.02
0.008,-0.013
0.009,0.008
0.009,0.032
0.009,0.033
0.009,0.08
0.009,0.082
0.01,0.123
0.01,0.123
0.01,0.13
0.011,0.127
0.011,0.12
0.011,0.122
0.011,0.103
0.011,0.103
0.012,0.085
0.012,0.083
0.012,0.075
0.013,0.075
0.013,0.082
0.013,0.083
0.013,0.103
0.013,0.103
0.014,0.113
0.014,0.108
0.014,0.087
0.015,0.083
0.015,0.015
0.015,0.013
0.015,-0.037
0.015,-0.038
0.016,-0.085
0.016,-0.083
0.016,-0.095
0.017,-0.087
0.017,-0.063
0.017,-0.063
0.017,-0.058
0.018,-0.065
0.018,-0.085
0.018,-0.083
0.018,-0.103
0.018,-0.105
0.019,-0.11
0.019,-0.107
0.019,-0.085
0.019,-0.083
0.02,-0.052
0.02,-0.048
0.02,-0.035
0.021,-0.035
0.021,-0.025
0.021,-0.02
0.021,-0.028
0.021,-0.027
0.022,-0.04
0.022,-0.038
0.022,-0.03
0.022,-0.028
0.023,-0.015
0.023,-0.017
0.023,-0.012
0.024,-0.015
0.024,-0.01
0.024,-0.013
0.024,-0.005
0.025,-0.007
0.025,0.005
0.025,0.008
0.025,-0.002
0.025,-0.002
0.026,-0.017
0.026,-0.022
0.026,-0.015
0.026,-0.015
0.027,-0.008
0.027,-0.008
0.027,0.002
0.028,0
0.028,0.02
0.028,0.022
0.028,0.043
0.029,0.045
0.029,0.087
0.029,0.09
0.029,0.135
0.029,0.137
0.03,0.175
0.03,0.173
0.03,0.187
0.03,0.18
0.031,-0.15
0.031,-0.188
0.031,-0.702
0.032,-0.682
0.032,-0.362
0.032,-0.352
0.032,-0.143
0.033,-0.138
0.033,-0.03
0.033,-0.027
0.033,0.037
0.034,0.038
0.034,0.078
0.034,0.08
0.034,0.102
0.035,0.102
0.035,0.113
0.035,0.112
0.035,0.097
0.035,0.095
0.036,0.077
0.036,0.075
0.036,0.062
0.036,0.06
0.037,0.04
0.037,0.042
0.037,0.032
0.037,0.035
0.038,0.03
0.038,0.032
0.038,0.025
0.038,0.025
0.039,0.013
0.039,0.015
0.039,0.008
0.04,0.013
0.04,0.023
0.04,0.025
0.04,0.037
0.041,0.035
0.041,0.043
0.041,0.042
0.041,0.047
0.042,0.048
0.042,0.052
0.042,0.052
0.042,0.042
0.043,0.04
0.043,-0.015
0.043,-0.023
0.043,-0.177
0.043,-0.182
0.044,-0.24
0.044,-0.243
0.044,-0.21
0.044,-0.208
0.045,-0.112
0.045,-0.107
0.045,0.032
0.045,0.037
0.046,0.153
0.046,0.16
0.046,0.287
0.046,0.29
0.047,0.388
0.047,0.393
0.047,0.468
0.048,0.463
0.048,0.052
0.048,0.012
0.048,-1.265
0.049,-1.447
0.049,-0.923
0.049,-0.902
0.049,-0.207
0.05,-0.183
0.05,0.173
0.05,0.18
0.05,0.265
0.051,0.268
0.051,0.248
0.051,0.247
0.051,0.185
0.051,0.182
0.052,0.085
0.052,0.082
0.052,-0.005
0.052,-0.01
0.053,-0.057
0.053,-0.062
0.053,-0.045
0.053,-0.043
0.054,0.012
0.054,0.013
0.054,0.053
0.054,0.055
0.055,0.088
0.055,0.088
0.055,0.105
0.056,0.107
0.056,0.087
0.056,0.087
0.056,0.04
0.057,0.038
0.057,0
0.057,-0.003
0.057,-0.033
0.058,-0.037
0.058,-0.053
0.058,-0.052
0.058,-0.065
0.059,-0.067
0.059,-0.073
0.059,-0.07
0.059,-0.042
0.059,-0.042
0.06,-0.003
0.06,0
0.06,0.053
0.06,0.055
0.061,0.123
0.061,0.125
0.061,0.2
0.061,0.202
0.062,0.268
0.062,0.27
0.062,0.323
0.062,0.325
0.063,0.368
0.063,0.37
0.063,0.42
0.064,0.425
0.064,0.262
0.064,0.243
0.064,-0.565
0.065,-0.603
0.065,-1.092
0.065,-1.092
0.065,-0.825
0.066,-0.803
0.066,-0.245
0.066,-0.225
0.066,0.138
0.067,0.148
0.067,0.272
0.067,0.273
0.067,0.293
0.068,0.292
0.068,0.263
0.068,0.262
0.068,0.22
0.069,0.217
0.069,0.165
0.069,0.163
0.069,0.125
0.07,0.123
0.07,0.075
0.07,0.072
0.07,0.038
0.07,0.03
0.071,0.043
0.071,0.042
0.071,0.083
0.071,0.087
0.072,0.172
0.072,0.178
0.072,0.28
0.072,0.285
0.073,0.4
0.073,0.405
0.073,0.532
0.073,0.538
0.074,0.748
0.074,0.76
0.074,1.01
0.074,1.02
0.075,1.277
0.075,1.272
0.075,0.317
0.075,0.25
0.076,-0.953
0.076,-0.408
0.076,-2.803
0.076,-1.588
0.077,-2.832
0.077,-2.872
0.077,-1.335
0.077,-1.263
0.078,0.108
0.078,0.14
0.078,0.55
0.079,0.558
0.079,0.612
0.079,0.59
0.079,0.45
0.08,0.443
0.08,0.292
0.08,0.283
0.08,0.153
0.081,0.148
0.081,0.103
0.081,0.103
0.081,0.113
0.082,0.117
0.082,0.102
0.082,0.1
0.082,0.067
0.083,0.065
0.083,0.015
0.083,0.013
0.083,-0.048
0.084,-0.052
0.084,-0.087
0.084,-0.087
0.084,-0.072
0.085,-0.073
0.085,-0.037
0.085,-0.035
0.085,0.023
0.086,0.027
0.086,0.107
0.086,0.11
0.086,0.193
0.086,0.197
0.087,0.222
0.087,0.222
0.087,0.18
0.087,0.178
0.088,0.077
0.088,0.072
0.088,-0.008
0.088,-0.015
0.089,0
0.089,0.003
0.089,0.09
0.089,0.095
0.09,0.263
0.09,0.275
0.09,0.768
0.09,1.772
0.091,0.282
0.091,-0.113
0.091,2.312
0.091,2.369
0.092,-1.142
0.092,-1.045
0.092,0.305
0.092,0.328
0.093,0.522
0.093,0.525
0.093,0.508
0.093,0.507
0.094,0.488
0.094,0.485
0.094,0.493
0.095,0.495
0.095,0.542
0.095,0.545
0.095,0.653
0.096,0.718
0.096,0.657
0.096,0.643
0.096,-0.183
0.097,-0.235
0.097,-1.03
0.097,-1.092
0.097,-0.868
0.098,-0.845
0.098,-0.252
0.098,-0.228
0.098,0.142
0.099,0.15
0.099,0.247
0.099,0.245
0.099,0.143
0.1,0.137
0.1,0.052
0.1,0.062
0.1,0.053
0.101,0.052
0.101,0.06
0.101,0.06
0.101,0.075
0.102,0.078
0.102,0.07
0.102,0.07
0.102,0.055
0.102,0.055
0.103,0.04
0.103,0.033
0.103,0.047
0.103,0.047
0.104,0.087
0.104,0.087
0.104,0.122
0.104,0.123
0.105,0.173
0.105,0.173
0.105,0.185
0.105,0.178
0.106,0.108
0.106,0.105
0.106,-0.012
0.106,-0.017
0.107,-0.113
0.107,-0.123
0.107,-0.1
0.107,-0.098
0.108,-0.057
0.108,-0.058
0.108,-0.175
0.108,-0.182
0.109,-0.253
0.109,-0.245
0.109,-0.073
0.11,-0.05
0.11,-0.123
0.11,-0.132
0.11,-0.303
0.111,-0.357
0.111,-0.308
0.111,-0.302
0.111,-0.01
0.112,0.003
0.112,0.22
0.112,0.225
0.112,0.315
0.113,0.317
0.113,0.333
0.113,0.332
0.113,0.298
0.114,0.295
0.114,0.215
0.114,0.212
0.114,0.132
0.115,0.128
0.115,0.058
0.115,0.055
0.115,0.022
0.116,0.023
0.116,0.05
0.116,0.052
0.116,0.075
0.117,0.077
0.117,0.088
0.117,0.087
0.117,0.093
0.117,0.088
0.118,0.093
0.118,0.09
0.118,0.053
0.118,0.052
0.119,0.035
0.119,0.04
0.119,-0.073
0.119,-0.095
0.12,-0.767
0.12,-0.815
0.12,-0.583
0.12,-0.565
0.121,-0.257
0.121,-0.248
0.121,-0.062
0.121,-0.058
0.122,0.042
0.122,0.045
0.122,0.092
0.122,0.093
0.123,0.112
0.123,0.113
0.123,0.143
0.123,0.147
0.124,0.268
0.124,0.702
0.124,0.02
0.124,-0.192
0.125,-0.618
0.125,-0.605
0.125,-0.232
0.126,-0.218
0.126,0.017
0.126,0.022
0.126,0.065
0.127,0.06
0.127,0.077
0.127,0.077
0.127,0.095
0.128,0.093
0.128,0.1
0.128,0.098
0.128,0.052
0.129,0.045
0.129,-0.14
0.129,-0.143
0.129,-0.217
0.13,-0.223
0.13,-0.203
0.13,-0.202
0.13,-0.102
0.131,-0.097
0.131,0.045
0.131,0.05
0.131,0.162
0.132,0.167
0.132,0.287
0.132,0.29
0.132,0.382
0.133,0.385
0.133,0.448
0.133,0.452
0.133,0.19
0.134,0.147
0.134,-1.205
0.134,-1.483
0.134,-0.99
0.135,-0.97
0.135,-0.298
0.135,-0.27
0.135,0.138
0.136,0.148
0.136,0.28
0.136,0.283
0.136,0.303
0.137,0.297
0.137,0.263
0.137,0.26
0.137,0.2
0.138,0.197
0.138,0.138
0.138,0.137
0.138,0.092
0.139,0.092
0.139,0.067
0.139,0.065
0.139,0.048
0.14,0.048
0.14,0.037
0.14,0.04
0.14,0.028
0.141,0.028
0.141,0.018
0.141,0.018
0.141,0.005
0.141,0.005
0.142,-0.002
0.142,0.002
0.142,-0.005
0.142,-0.003
0.143,-0.013
0.143,-0.012
0.143,-0.007
0.143,-0.008
0.144,0.008
0.144,0.01
0.144,0.02
0.144,0.018
0.145,0.025
0.145,0.023
0.145,0.028
0.145,0.025
0.146,0.01
0.146,0.01
0.146,-0.028
0.146,-0.03
0.147,-0.072
0.147,-0.072
0.147,-0.085
0.147,-0.08
0.148,-0.055
0.148,-0.053
0.148,-0.018
0.148,-0.017
0.149,0.005
0.149,0.005
0.149,0.013
0.149,0.017
0.15,0.012
0.15,0.012
0.15,0.005
0.15,0.01
0.151,0.003
0.151,0.005
0.151,-0.005
0.151,-0.003
0.152,-0.015
0.152,-0.017
0.152,-0.023
0.152,-0.023
0.153,-0.03
0.153,-0.028
0.153,-0.022
0.153,-0.023
0.154,-0.018
0.154,-0.023
0.154,-0.017
0.154,-0.018
0.155,-0.012
0.155,-0.012
0.155,-0.005
0.155,-0.007
0.156,-0.013
0.156,-0.015
0.156,-0.027
0.157,-0.027
0.157,-0.023
0.157,-0.022
0.157,-0.028
0.158,-0.03
0.158,-0.027
0.158,-0.03
0.158,-0.037
0.159,-0.037
0.159,-0.045
0.159,-0.047
0.159,-0.042
0.16,-0.043
0.16,-0.025
0.16,-0.027
0.16,-0.018
0.161,-0.02
0.161,-0.008
0.161,-0.007
0.161,0.003
0.162,0.003
0.162,0.012
0.162,0.008
0.162,0.015
0.163,0.013
0.163,0.032
0.163,0.032
0.163,0.047
0.164,0.047
0.164,0.068
0.164,0.067
0.164,0.093
0.165,0.095
0.165,0.127
0.165,0.125
0.165,0.135
0.166,0.137
0.166,0.13
0.166,0.128
0.166,0.118
0.167,0.12
0.167,0.098
0.167,0.098
0.167,0.065
0.168,0.065
0.168,0.02
0.168,0.018
0.168,-0.018
0.169,-0.02
0.169,-0.062
0.169,-0.063
0.169,-0.113
0.17,-0.112
0.17,-0.153
0.17,-0.155
0.17,-0.168
0.171,-0.163
0.171,-0.132
0.171,-0.13
0.171,-0.097
0.172,-0.093
0.172,-0.048
0.172,-0.047
0.172,-0.01
0.172,-0.008
0.173,0.015
0.173,0.018
0.173,0.008
0.173,0.007
0.174,-0.002
0.174,-0.002
0.174,0.01
0.174,0.013
0.175,0.003
0.175,0.005
0.175,0.013
0.175,0.013
0.176,0.018
0.176,0.015
0.176,0.025
0.176,0.028
0.177,0.067
0.177,0.073
0.177,0.063
0.177,0.067
0.178,0.095
0.178,0.095
0.178,0.17
0.178,0.173
0.179,0.362
0.179,0.37
0.179,0.622
0.179,0.637
0.18,0.795
0.18,0.737
0.18,-0.68
0.18,0.1
0.181,-1.887
0.181,-2.528
0.181,-0.665
0.181,-0.638
0.182,-0.583
0.182,-0.588
0.182,-0.093
0.182,-0.068
0.183,0.287
0.183,0.293
0.183,0.403
0.183,0.405
0.184,0.418
0.184,0.408
0.184,0.357
0.184,0.353
0.185,0.278
0.185,0.275
0.185,0.2
0.185,0.197
0.186,0.138
0.186,0.137
0.186,0.07
0.186,0.067
0.187,-0.008
0.187,-0.01
0.187,-0.05
0.188,-0.052
0.188,-0.062
0.188,-0.063
0.188,-0.053
0.189,-0.052
0.189,-0.033
0.189,-0.033
0.189,-0.02
0.19,-0.02
0.19,-0.033
0.19,-0.032
0.19,-0.038
0.191,-0.038
0.191,-0.017
0.191,-0.02
0.191,-0.005
0.192,-0.007
0.192,0
0.192,-0.002
0.192,-0.005
0.193,-0.005
0.193,-0.023
0.193,-0.023
0.193,-0.042
0.194,-0.04
0.194,-0.055
0.194,-0.052
0.194,-0.057
0.195,-0.052
0.195,-0.058
0.195,-0.057
0.195,-0.062
0.196,-0.052
0.196,-0.06
0.196,-0.055
0.196,-0.045
0.197,-0.043
0.197,-0.033
0.197,-0.037
0.197,-0.03
0.198,-0.03
0.198,-0.037
0.198,-0.037
0.198,-0.03
0.199,-0.032
0.199,-0.025
0.199,-0.025
0.199,-0.012
0.2,-0.01
0.2,0
0.2,0.002
0.2,0.007
0.201,0.003
0.201,0.008
0.201,0.008
0.201,0.003
0.202,0.005
0.202,0
0.202,-0.002
0.202,-0.01
0.203,-0.008
0.203,-0.015
0.203,-0.012
0.203,-0.018
0.203,-0.017
0.204,-0.022
0.204,-0.023
0.204,-0.027
0.204,-0.025
0.205,-0.032
0.205,-0.03
0.205,-0.025
0.205,-0.022
0.206,-0.027
0.206,-0.018
0.206,-0.023
0.206,-0.018
0.207,-0.005
0.207,-0.003
0.207,0.032
0.207,0.033
0.208,0.068
0.208,0.07
0.208,0.103
0.208,0.107
0.209,0.148
0.209,0.147
0.209,0.197
0.209,0.2
0.21,0.282
0.21,0.282
0.21,0.348
0.21,0.357
0.211,0.307
0.211,0.298
0.211,0.11
0.211,0.17
0.212,-0.392
0.212,-0.197
0.212,-1.187
0.212,-0.798
0.213,-2.118
0.213,-1.69
0.213,-0.485
0.213,-0.433
0.214,0.4
0.214,0.505
0.214,0.37
0.214,0.35
0.215,-0.545
0.215,-0.578
0.215,-0.825
0.215,-0.818
0.216,-0.432
0.216,-0.408
0.216,0.09
0.216,0.107
0.217,0.352
0.217,0.358
0.217,0.42
0.217,0.428
0.218,0.405
0.218,0.402
0.218,0.345
0.218,0.343
0.219,0.29
0.219,0.288
0.219,0.253
0.22,0.253
0.22,0.222
0.22,0.22
0.22,0.183
0.221,0.182
0.221,0.157
0.221,0.157
0.221,0.14
0.222,0.138
0.222,0.112
0.222,0.11
0.222,0.08
0.223,0.08
0.223,0.072
0.223,0.07
0.223,0.077
0.224,0.077
0.224,0.083
0.224,0.083
0.224,0.095
0.225,0.093
0.225,0.113
0.225,0.113
0.225,0.15
0.226,0.152
0.226,0.203
0.226,0.207
0.226,0.313
0.227,0.318
0.227,0.418
0.227,0.423
0.227,0.543
0.228,0.545
0.228,0.178
0.228,0.14
0.228,-0.972
0.229,-1.01
0.229,-1.552
0.229,-1.537
0.229,-0.98
0.23,-0.947
0.23,-0.23
0.23,-0.207
0.23,0.258
0.231,0.272
0.231,0.528
0.231,0.533
0.231,0.56
0.232,0.56
0.232,0.767
0.232,0.785
0.232,1.84
0.233,1.9
0.233,-1.57
0.233,-1.493
0.233,2.885
0.234,-2.167
0.234,-0.735
0.234,-0.692
0.234,-1.102
0.234,-0.9
0.235,-0.055
0.235,-0.023
0.235,0.572
0.235,0.588
0.236,0.793
0.236,0.802
0.236,0.777
0.236,0.775
0.237,0.67
0.237,0.665
0.237,0.525
0.237,0.518
0.238,0.4
0.238,0.397
0.238,0.332
0.238,0.33
0.239,0.292
0.239,0.288
0.239,0.24
0.239,0.237
0.24,0.147
0.24,0.135
0.24,-0.595
0.24,-0.733
0.241,-0.588
0.241,-0.577
0.241,-0.285
0.241,-0.275
0.242,-0.107
0.242,-0.102
0.242,-0.012
0.242,-0.007
0.243,0.078
0.243,0.083
0.243,0.143
0.243,0.147
0.244,0.173
0.244,0.172
0.244,0.178
0.244,0.183
0.245,0.178
0.245,0.18
0.245,0.187
0.245,0.187
0.246,0.178
0.246,0.178
0.246,0.165
0.246,0.167
0.247,0.147
0.247,0.147
0.247,0.13
0.247,0.13
0.248,0.113
0.248,0.112
0.248,0.093
0.248,0.095
0.249,0.078
0.249,0.077
0.249,0.063
0.249,0.063
0.25,0.028
0.25,0.1
0.25,-1.187
0.251,-2.567
0.251,-1.663
0.251,-0.043
0.251,-0.01
0.252,0.373
0.252,0.383
0.252,0.452
0.252,0.43
0.253,0.328
0.253,0.323
0.253,0.213
0.253,0.21
0.254,0.122
0.254,0.118
0.254,0.055
0.254,0.053
0.255,0.018
0.255,0.018
0.255,0
0.255,0.002
0.256,-0.005
0.256,-0.003
0.256,0.002
0.256,0
0.257,0.007
0.257,0.007
0.257,0.015
0.257,0.015
0.258,0.022
0.258,0.022
0.258,0.012
0.258,0.01
0.259,0.002
0.259,0.003
0.259,-0.003
0.259,-0.002
0.26,0.003
0.26,0.003
0.26,0
0.26,0.005
0.261,0.013
0.261,0.013
0.261,0.018
0.261,0.018
0.262,0.023
0.262,0.018
0.262,0.013
0.262,0.017
0.263,0.01
0.263,0.012
0.263,0.005
0.263,0.007
0.264,0.002
0.264,0.002
0.264,0.003
0.264,0
0.265,0.007
0.265,0
0.265,-0.007
0.265,-0.003
0.266,-0.01
0.266,-0.007
0.266,-0.012
0.266,-0.012
0.267,-0.008
0.267,-0.012
0.267,-0.008
0.267,-0.01
0.268,-0.007
0.268,-0.007
0.268,-0.012
0.268,-0.007
0.269,-0.015
0.269,-0.013
0.269,-0.022
0.269,-0.023
0.27,-0.022
0.27,-0.023
0.27,-0.02
0.27,-0.022
0.271,-0.015
0.271,-0.017
0.271,-0.012
0.271,-0.013
0.272,-0.007
0.272,-0.007
0.272,-0.003
0.272,-0.003
0.273,0.002
0.273,-0.005
0.273,0
0.273,-0.002
0.274,-0.008
0.274,-0.008
0.274,-0.02
0.274,-0.02
0.275,-0.025
0.275,-0.025
0.275,-0.028
0.275,-0.03
0.276,-0.023
0.276,-0.018
0.276,-0.025
0.276,-0.027
0.277,-0.023
0.277,-0.025
0.277,-0.018
0.277,-0.018
0.278,-0.023
0.278,-0.027
0.278,-0.02
0.278,-0.02
0.279,-0.015
0.279,-0.013
0.279,-0.01
0.279,-0.008
0.28,-0.012
0.28,-0.01
0.28,-0.005
0.28,-0.007
0.281,-0.003
0.281,-0.005
0.281,0.003
0.281,0.002
0.281,0.007
0.282,0.005
0.282,0.008
0.282,0.01
0.282,0.007
0.283,0.012
0.283,0.008
0.283,0.008
0.283,0.012
0.284,0.012
0.284,0.008
0.284,0.012
0.284,0.015
0.285,0.015
0.285,0.012
0.285,0.012
0.285,0.017
0.286,0.013
0.286,0.017
0.286,0.013
0.286,0.017
0.287,0.015
0.287,0.012
0.287,0.012
0.287,0.008
0.288,0.01
0.288,0.005
0.288,0.008
0.288,0.005
0.289,0.005
0.289,0.01
0.289,0.005
0.289,0.01
0.29,0.01
0.29,0.023
0.29,0.023
0.29,0.035
0.291,0.035
0.291,0.038
0.291,0.037
0.291,0.028
0.292,0.028
0.292,0.002
0.292,0
0.292,-0.035
0.293,-0.035
0.293,-0.053
0.293,-0.055
0.293,-0.038
0.294,-0.042
0.294,-0.03
0.294,-0.03
0.294,-0.02
0.295,-0.02
0.295,-0.015
0.295,-0.017
0.295,-0.01
0.296,-0.013
0.296,-0.007
0.296,-0.007
0.296,-0.01
0.297,-0.008
0.297,-0.003
0.297,-0.005
0.297,-0.002
0.298,-0.005
0.298,0
0.298,-0.003
0.298,-0.005
0.299,-0.003
0.299,0
0.299,-0.002
0.299,-0.007
0.3,-0.005
0.3,-0.002
0.3,-0.005
0.3,-0.012
0.301,-0.008
0.301,-0.015
0.301,-0.013
0.301,-0.017
0.302,-0.017
0.302,-0.012
0.302,-0.015
0.302,-0.01
0.303,-0.013
0.303,-0.007
0.303,-0.01
0.303,-0.005
0.304,-0.008
0.304,-0.005
0.304,-0.008
0.304,-0.005
0.305,-0.008
0.305,0.002
0.305,0.003
0.305,0.01
0.306,0.013
0.306,0.01
0.306,0.01
0.306,0
0.307,0
0.307,-0.01
0.307,-0.008
0.307,-0.015
0.308,-0.017
0.308,-0.013
0.308,-0.015
0.308,-0.01
0.309,-0.01
0.309,-0.015
0.309,-0.013
0.309,-0.008
0.31,-0.01
0.31,-0.003
0.31,-0.003
0.31,-0.002
0.311,-0.003
0.311,0.003
0.311,0.003
0.311,0.01
0.312,0.012
0.312,0.02
0.312,0.02
0.312,0.025
0.313,0.023
0.313,0.027
0.313,0.028
0.314,0.025
0.314,0.027
0.314,0.038
0.314,0.04
0.315,0.053
0.315,0.053
0.315,0.063
0.315,0.063
0.316,0.072
0.316,0.067
0.316,0.037
0.316,0.037
0.317,-0.003
0.317,-0.003
0.317,-0.032
0.317,-0.033
0.318,-0.062
0.318,-0.062
0.318,-0.072
0.318,-0.067
0.319,-0.053
0.319,-0.052
0.319,-0.043
0.319,-0.045
0.32,-0.035
0.32,-0.035
0.32,-0.018
0.32,-0.018
0.321,-0.007
0.321,-0.007
0.321,0.005
0.321,0.007
0.322,0.002
0.322,0.003
0.322,-0.005
0.322,-0.007
0.323,-0.013
0.323,-0.013
0.323,-0.023
0.323,-0.02
0.324,-0.027
0.324,-0.025
0.324,-0.028
0.324,-0.028
0.325,-0.033
0.325,-0.032
0.325,-0.037
0.325,-0.037
0.326,-0.032
0.326,-0.035
0.326,-0.03
0.326,-0.033
0.327,-0.023
0.327,-0.025
0.327,-0.017
0.327,-0.015
0.328,0.002
0.328,0.002
0.328,0.015
0.328,0.012
0.329,0.022
0.329,0.022
0.329,0.032
0.329,0.03
0.33,0.037
0.33,0.035
0.33,0.042
0.33,0.037
0.331,0.043
0.331,0.04
0.331,0.047
0.331,0.038
0.332,0.042
0.332,0.04
0.332,0.032
0.332,0.032
0.333,0.02
0.333,0.02
0.333,0.01
0.333,0.012
0.334,0.007
0.334,0.013
0.334,0.007
0.334,0.01
0.335,0.005
0.335,0.007
0.335,0.003
0.335,0.003
0.336,0.008
0.336,0.007
0.336,0.002
0.336,0.002
0.337,0.005
0.337,0.005
0.337,0.002
0.337,0.003
0.338,0
0.338,0.002
0.338,-0.002
0.338,0
0.339,0.007
0.339,0.005
0.339,0.01
0.339,0.008
0.34,0.012
0.34,0.013
0.34,0.007
0.34,0.012
0.341,0.008
0.341,0.01
0.341,0.005
0.341,0.007
0.342,0.012
0.342,0.008
0.342,0.012
0.342,0.012
0.343,0.008
0.343,0.008
0.343,0.013
0.343,0.012
0.344,0.017
0.344,0.017
0.344,0.022
0.344,0.018
0.344,0.022
0.345,0.02
0.345,0.023
0.345,0.022
0.345,0.013
0.346,0.012
0.346,0.007
0.346,0.007
0.346,-0.003
0.347,0
0.347,-0.008
0.347,-0.007
0.347,-0.012
0.348,-0.008
0.348,-0.015
0.348,-0.015
0.348,-0.012
0.349,-0.013
0.349,-0.015
0.349,-0.015
0.349,-0.008
0.35,-0.012
0.35,-0.007
0.35,-0.008
0.35,-0.002
0.351,-0.003
0.351,0.003
0.351,0
0.351,0.007
0.352,0.007
0.352,0.013
0.352,0.012
0.352,0.018
0.353,0.018
0.353,0.013
0.353,0.012
0.353,-0.005
0.354,-0.005
0.354,-0.023
0.354,-0.023
0.354,-0.042
0.355,-0.042
0.355,-0.058
0.355,-0.057
0.355,-0.063
0.356,-0.062
0.356,-0.058
0.356,-0.058
0.356,-0.053
0.357,-0.053
0.357,-0.033
0.357,-0.035
0.357,-0.025
0.358,-0.025
0.358,-0.022
0.358,-0.022
0.358,-0.025
0.359,-0.027
0.359,-0.022
0.359,-0.022
0.359,0.008
0.36,0.013
0.36,0.102
0.36,0.105
0.36,0.205
0.361,0.21
0.361,0.332
0.361,0.338
0.361,0.522
0.362,0.6
0.362,0.5
0.362,0.482
0.362,-0.32
0.363,-0.362
0.363,-0.742
0.363,-0.578
0.363,0.428
0.364,0.872
0.364,-1.285
0.364,-1.43
0.364,-2.088
0.365,-1.372
0.365,-0.375
0.365,-0.372
0.365,-0.175
0.366,-0.167
0.366,0.05
0.366,0.057
0.366,0.113
0.367,0.117
0.367,0.262
0.367,0.268
0.367,0.36
0.368,0.363
0.368,0.438
0.368,0.44
0.368,0.5
0.369,0.513
0.369,0.4
0.369,0.38
0.369,-0.167
0.37,-0.19
0.37,-0.443
0.37,-0.425
0.37,-0.215
0.371,-0.203
0.371,0.037
0.371,0.043
0.371,0.167
0.372,0.168
0.372,0.208
0.372,0.205
0.372,0.172
0.373,0.168
0.373,0.117
0.373,0.115
0.373,0.087
0.374,0.085
0.374,0.068
0.374,0.068
0.374,0.06
0.375,0.06
0.375,0.047
0.375,0.047
0.376,0.035
0.376,0.035
0.376,0.028
0.376,0.03
0.377,0.037
0.377,0.037
0.377,0.03
0.377,0.033
0.378,0.028
0.378,0.032
0.378,0.038
0.378,0.035
0.379,0.03
0.379,0.032
0.379,0.023
0.379,0.023
0.38,0.015
0.38,0.017
0.38,0.013
0.38,0.015
0.381,0.018
0.381,0.02
0.381,0.015
0.381,0.018
0.382,0.013
0.382,0.017
0.382,0.007
0.382,0.008
0.383,0.003
0.383,0.003
0.383,-0.003
0.383,-0.002
0.384,-0.005
0.384,-0.003
0.384,-0.007
0.384,-0.005
0.385,-0.008
0.385,-0.005
0.385,-0.008
0.385,-0.005
0.386,-0.012
0.386,-0.012
0.386,-0.008
0.386,-0.013
0.387,-0.01
0.387,-0.013
0.387,-0.003
0.387,-0.007
0.388,0
0.388,-0.002
0.388,0.005
0.388,0.002
0.389,0.008
0.389,0.007
0.389,0.012
0.389,0.01
0.39,0.003
0.39,0.002
0.39,0.005
0.39,0.007
0.391,0
0.391,0
0.391,0.005
0.391,0.002
0.392,0.008
0.392,0.008
0.392,0.012
0.392,0.01
0.393,0.005
0.393,0.005
0.393,-0.01
0.393,-0.01
0.394,-0.022
0.394,-0.02
0.394,-0.037
0.394,-0.038
0.395,-0.052
0.395,-0.052
0.395,-0.042
0.395,-0.04
0.396,-0.023
0.396,-0.023
0.396,-0.005
0.396,-0.003
0.397,0.013
0.397,0.013
0.397,0.02
0.397,0.018
0.398,0.012
0.398,0.013
0.398,-0.008
0.398,-0.01
0.399,-0.038
0.399,-0.037
0.399,-0.047
0.399,-0.047
0.4,-0.035
0.4,-0.037
0.4,-0.023
0.4,-0.025
0.401,-0.02
0.401,-0.022
0.401,-0.015
0.401,-0.018
0.402,-0.013
0.402,-0.015
0.402,-0.017
0.402,-0.015
0.403,-0.02
0.403,-0.02
0.403,-0.015
0.403,-0.017
0.404,-0.013
0.404,-0.017
0.404,-0.012
0.404,-0.015
0.405,-0.012
0.405,-0.015
0.405,-0.01
0.405,-0.013
0.406,-0.008
0.406,-0.012
0.406,-0.007
0.406,-0.008
0.406,-0.003
0.407,-0.005
0.407,-0.003
0.407,-0.003
0.407,-0.008
0.408,-0.003
0.408,-0.008
0.408,-0.003
0.408,-0.007
0.409,-0.005
0.409,0.002
0.409,0
0.409,0.003
0.41,0.005
0.41,0
0.41,0.005
0.41,0
0.411,0
0.411,0.007
0.411,0.003
0.411,0.007
0.412,0.005
0.412,0
0.412,0.003
0.412,-0.005
0.413,-0.002
0.413,-0.01
0.413,-0.005
0.413,-0.01
0.414,-0.012
0.414,-0.023
0.414,-0.023
0.414,-0.027
0.415,-0.023
0.415,-0.028
0.415,-0.027
0.415,-0.018
0.416,-0.017
0.416,-0.007
0.416,-0.008
0.416,-0.02
0.417,-0.022
0.417,-0.037
0.417,-0.037
0.417,-0.052
0.418,-0.05
0.418,-0.047
0.418,-0.05
0.418,-0.045
0.419,-0.045
0.419,-0.027
0.419,-0.025
0.419,-0.018
0.42,-0.018
0.42,-0.023
0.42,-0.023
0.42,-0.018
0.421,-0.022
0.421,-0.017
0.421,-0.017
0.421,-0.008
0.422,-0.007
0.422,0.003
0.422,0.002
0.422,0.01
0.423,0.007
0.423,0.01
0.423,0.007
0.423,0.002
0.424,0.002
0.424,-0.007
0.424,-0.005
0.424,-0.01
0.425,-0.007
0.425,-0.012
0.425,-0.007
0.425,-0.013
0.426,-0.01
0.426,-0.015
0.426,-0.012
0.426,-0.017
0.427,-0.017
0.427,-0.02
0.427,-0.022
0.427,-0.017
0.428,-0.018
0.428,-0.015
0.428,-0.017
0.428,-0.012
0.429,-0.017
0.429,-0.013
0.429,-0.015
0.429,-0.012
0.43,-0.012
0.43,-0.003
0.43,-0.003
0.43,0.003
0.431,0.002
0.431,0.005
0.431,0.003
0.431,-0.005
0.432,-0.005
0.432,-0.012
0.432,-0.01
0.432,-0.018
0.433,-0.017
0.433,-0.022
0.433,-0.023
0.433,-0.018
0.434,-0.02
0.434,-0.015
0.434,-0.017
0.434,-0.02
0.435,-0.017
0.435,-0.01
0.435,-0.012
0.435,-0.008
0.436,-0.012
0.436,-0.007
0.436,-0.012
0.436,-0.007
0.437,-0.008
0.437,-0.005
0.437,-0.005
0.438,-0.002
0.438,-0.003
0.438,0.002
0.438,-0.002
0.439,0.002
0.439,0
0.439,0.003
0.439,0
0.44,0.003
0.44,0.002
0.44,-0.003
0.44,0.002
0.441,-0.003
0.441,-0.003
0.441,-0.01
0.441,-0.01
0.442,-0.005
0.442,-0.007
0.442,0
0.442,0
0.443,0.008
0.443,0.008
0.443,0.022
0.443,0.022
0.444,0.038
0.444,0.037
0.444,0.043
0.444,0.042
0.445,0.047
0.445,0.047
0.445,0.042
0.445,0.045
0.446,0.038
0.446,0.038
0.446,0.028
0.446,0.03
0.447,0.02
0.447,0.02
0.447,0.027
0.447,0.023
0.448,0.028
0.448,0.023
0.448,0.025
0.448,0.027
0.449,0.018
0.449,0.02
0.449,0.015
0.449,0.017
0.45,0.01
0.45,0.012
0.45,0.018
0.45,0.017
0.451,0.023
0.451,0.022
0.451,0.028
0.451,0.03
0.452,0.035
0.452,0.035
0.452,0.03
0.452,0.032
0.453,0.013
0.453,0.012
0.453,-0.005
0.453,-0.008
0.454,-0.028
0.454,-0.028
0.454,-0.038
0.454,-0.037
0.455,-0.058
0.455,-0.06
0.455,-0.083
0.455,-0.083
0.456,-0.1
0.456,-0.1
0.456,-0.085
0.456,-0.085
0.457,-0.063
0.457,-0.062
0.457,-0.038
0.457,-0.038
0.458,-0.018
0.458,-0.018
0.458,0.005
0.458,0.003
0.459,0.02
0.459,0.02
0.459,0.027
0.459,0.027
0.46,0.025
0.46,0.025
0.46,0.028
0.46,0.025
0.461,0.028
0.461,0.023
0.461,0.027
0.461,0.022
0.462,0.032
0.462,0.032
0.462,0.103
0.462,0.107
0.463,0.182
0.463,0.185
0.463,0.278
0.463,0.283
0.464,0.415
0.464,0.422
0.464,0.527
0.464,0.48
0.465,-0.17
0.465,-0.205
0.465,-0.873
0.465,-0.857
0.466,-0.21
0.466,-0.11
0.466,0.725
0.466,-0.215
0.467,-2.505
0.467,-2.015
0.467,-0.22
0.467,-0.167
0.468,0.328
0.468,0.342
0.468,0.472
0.468,0.467
0.469,0.398
0.469,0.395
0.469,0.317
0.469,0.315
0.469,0.245
0.47,0.242
0.47,0.173
0.47,0.172
0.47,0.143
0.471,0.143
0.471,0.137
0.471,0.138
0.471,0.142
0.472,0.14
0.472,0.148
0.472,0.148
0.472,0.168
0.473,0.168
0.473,0.228
0.473,0.232
0.473,0.333
0.474,0.447
0.474,0.132
0.474,0.068
0.474,-0.33
0.475,-0.358
0.475,-0.272
0.475,-0.26
0.475,-0.08
0.476,-0.077
0.476,0.062
0.476,0.068
0.476,0.193
0.477,0.197
0.477,0.272
0.477,0.273
0.477,0.313
0.478,0.328
0.478,0.31
0.478,0.307
0.478,-0.05
0.479,-0.078
0.479,-0.598
0.479,-0.608
0.479,-0.497
0.48,-0.485
0.48,-0.207
0.48,-0.197
0.48,0.02
0.481,0.025
0.481,0.13
0.481,0.132
0.481,0.155
0.482,0.157
0.482,0.145
0.482,0.145
0.482,0.125
0.483,0.123
0.483,0.088
0.483,0.085
0.483,0.05
0.484,0.05
0.484,0.025
0.484,0.023
0.484,0.067
0.485,0.063
0.485,-0.01
0.485,-0.008
0.485,0.007
0.486,0.008
0.486,0.03
0.486,0.03
0.486,0.062
0.487,0.063
0.487,0.075
0.487,0.072
0.487,0.06
0.488,0.06
0.488,0.03
0.488,0.028
0.488,-0.017
0.489,-0.018
0.489,-0.053
0.489,-0.057
0.489,-0.063
0.49,-0.062
0.49,-0.048
0.49,-0.05
0.49,-0.035
0.491,-0.035
0.491,-0.027
0.491,-0.027
0.491,-0.017
0.492,-0.017
0.492,-0.013
0.492,-0.013
0.492,-0.008
0.493,-0.013
0.493,-0.007
0.493,-0.007
0.493,-0.013
0.494,-0.012
0.494,-0.015
0.494,-0.013
0.494,-0.022
0.495,-0.022
0.495,-0.017
0.495,-0.018
0.495,-0.015
0.496,-0.02
0.496,-0.015
0.496,-0.02
0.496,-0.017
0.497,-0.018
0.497,-0.027
0.497,-0.025
0.497,-0.033
0.498,-0.03
0.498,-0.035
0.498,-0.033
0.498,-0.027
0.499,-0.027
0.499,-0.017
0.499,-0.015
0.499,-0.007
0.5,-0.01
0.5,0.013
0.5,0.1
0.5,0.013
0.501,0.033
0.501,0.035
0.501,0.03
0.501,0.032
0.502,0.023
0.502,0.023
0.502,-0.033
0.502,-0.037
0.503,-0.113
0.503,-0.118
0.503,-0.203
0.503,-0.213
0.504,-0.202
0.504,-0.202
0.504,-0.148
0.504,-0.145
0.505,-0.075
0.505,-0.072
0.505,-0.022
0.505,-0.018
0.506,0.015
0.506,0.015
0.506,0.025
0.506,0.027
0.507,0.018
0.507,0.02
0.507,0.007
0.507,0.007
0.508,-0.003
0.508,-0.005
0.508,0
0.508,-0.003
0.509,0.002
0.509,0
0.509,0.008
0.509,0.008
0.51,0.017
0.51,0.015
0.51,0.02
0.51,0.02
0.511,0.027
0.511,0.025
0.511,0.028
0.511,0.023
0.512,0.028
0.512,0.027
0.512,0.022
0.512,0.022
0.513,0.025
0.513,0.022
0.513,0.015
0.513,0.017
0.514,0.012
0.514,0.013
0.514,0.008
0.514,0.012
0.515,0.008
0.515,0.01
0.515,0.007
0.515,0.01
0.516,0.005
0.516,0.01
0.516,0.015
0.516,0.012
0.517,0.015
0.517,0.015
0.517,0.017
0.517,0.018
0.518,0.013
0.518,0.017
0.518,0.013
0.518,0.013
0.519,0.01
0.519,0.008
0.519,0.015
0.519,0.013
0.52,0.02
0.52,0.02
0.52,0.018
0.52,0.02
0.521,0.022
0.521,0.02
0.521,0.027
0.521,0.025
0.522,0.033
0.522,0.035
0.522,0.045
0.522,0.047
0.523,0.055
0.523,0.053
0.523,0.058
0.523,0.057
0.524,0.05
0.524,0.052
0.524,0.048
0.524,0.052
0.525,0.047
0.525,0.045
0.525,0.052
0.525,0.052
0.526,0.042
0.526,0.04
0.526,0.012
0.526,0.012
0.527,-0.013
0.527,-0.013
0.527,-0.047
0.527,-0.047
0.528,-0.077
0.528,-0.077
0.528,-0.085
0.528,-0.083
0.529,-0.092
0.529,-0.092
0.529,-0.1
0.529,-0.098
0.53,-0.085
0.53,-0.083
0.53,-0.065
0.53,-0.067
0.531,-0.047
0.531,-0.047
0.531,-0.03
0.531,-0.028
0.532,-0.02
0.532,-0.018
0.532,-0.012
0.532,-0.013
0.533,-0.018
0.533,-0.018
0.533,-0.027
0.533,-0.027
0.534,-0.022
0.534,-0.02
0.534,-0.013
0.534,-0.017
0.535,-0.01
0.535,-0.017
0.535,-0.012
0.535,-0.015
0.536,-0.007
0.536,-0.007
0.536,0.008
0.536,0.007
0.537,0.012
0.537,0.008
0.537,0.013
0.537,0.013
0.538,0.008
0.538,0.01
0.538,0.007
0.538,0.008
0.539,0.012
0.539,0.01
0.539,0.018
0.539,0.015
0.54,0.02
0.54,0.017
0.54,0.022
0.54,0.02
0.541,0.025
0.541,0.023
0.541,0.027
0.541,0.027
0.542,0.023
0.542,0.025
0.542,0.02
0.542,0.02
0.543,0.007
0.543,0.007
0.543,-0.017
0.543,-0.017
0.544,-0.042
0.544,-0.043
0.544,-0.065
0.544,-0.065
0.545,-0.082
0.545,-0.083
0.545,-0.088
0.545,-0.088
0.546,-0.077
0.546,-0.077
0.546,-0.063
0.546,-0.063
0.547,-0.045
0.547,-0.043
0.547,-0.028
0.547,-0.03
0.548,-0.01
0.548,-0.008
0.548,0.008
0.548,0.008
0.549,0.015
0.549,0.015
0.549,0.02
0.549,0.017
0.55,0.022
0.55,0.02
0.55,0.015
0.55,0.015
0.551,0.02
0.551,0.018
0.551,0.012
0.551,0.012
0.552,0.017
0.552,0.018
0.552,0.012
0.552,0.012
0.553,-0.003
0.553,-0.005
0.553,-0.012
0.553,-0.01
0.554,-0.003
0.554,-0.003
0.554,0
0.554,-0.002
0.555,0.007
0.555,0.005
0.555,0.01
0.555,0.008
0.556,0.012
0.556,0.012
0.556,0.017
0.556,0.017
0.557,0.013
0.557,0.017
0.557,0.013
0.557,0.012
0.558,0.017
0.558,0.015
0.558,0.012
0.558,0.01
0.559,0.015
0.559,0.012
0.559,0.008
0.559,0.01
0.56,0.013
0.56,0.01
0.56,0.017
0.56,0.012
0.561,0.015
0.561,0.013
0.561,0.012
0.561,0.01
0.562,0.015
0.562,0.013
0.562,0.01
0.562,0.01
0.563,0.015
0.563,0.013
0.563,0.017
0.564,0.015
0.564,0.02
0.564,0.02
0.564,0.017
0.565,0.018
0.565,0.023
0.565,0.022
0.565,0.018
0.566,0.02
0.566,0.015
0.566,0.017
0.566,0.012
0.567,0.015
0.567,0.065
0.567,0.068
0.567,0.157
0.568,0.16
0.568,0.262
0.568,0.268
0.568,0.393
0.569,0.4
0.569,0.58
0.569,0.598
0.569,0.307
0.57,0.275
0.57,-0.62
0.57,-0.798
0.57,-0.202
0.571,-0.285
0.571,0.77
0.571,0.773
0.571,-2.49
0.572,-2.557
0.572,-1.138
0.572,-1.047
0.572,0.238
0.573,0.25
0.573,0.572
0.573,0.58
0.573,0.672
0.574,0.687
0.574,0.018
0.574,-0.008
0.574,-0.227
0.575,-0.242
0.575,-0.15
0.575,-0.142
0.575,-0.042
0.576,-0.037
0.576,0.112
0.576,0.117
0.576,0.227
0.577,0.23
0.577,0.317
0.577,0.32
0.577,0.38
0.578,0.398
0.578,0.34
0.578,0.328
0.578,-0.192
0.579,-0.218
0.579,-0.537
0.579,-0.535
0.579,-0.335
0.58,-0.322
0.58,-0.04
0.58,-0.03
0.58,0.152
0.581,0.157
0.581,0.215
0.581,0.22
0.581,0.193
0.582,0.19
0.582,0.127
0.582,0.123
0.582,0.063
0.583,0.063
0.583,0.04
0.583,0.042
0.583,0.037
0.584,0.038
0.584,0.035
0.584,0.04
0.584,0.035
0.585,0.038
0.585,0.042
0.585,0.038
0.585,0.032
0.586,0.037
0.586,0.02
0.586,0.02
0.586,0.003
0.587,0.007
0.587,-0.012
0.587,-0.013
0.587,-0.033
0.588,-0.033
0.588,-0.045
0.588,-0.047
0.588,-0.052
0.589,-0.05
0.589,-0.043
0.589,-0.043
0.589,-0.028
0.59,-0.03
0.59,-0.017
0.59,-0.017
0.59,-0.005
0.591,-0.005
0.591,0.008
0.591,0.01
0.591,0.022
0.592,0.022
0.592,0.028
0.592,0.027
0.592,0.03
0.593,0.028
0.593,0.023
0.593,0.027
0.593,0.018
0.594,0.022
0.594,0.013
0.594,0.013
0.594,0.003
0.595,0.003
0.595,-0.003
0.595,-0.003
0.595,-0.015
0.596,-0.017
0.596,-0.037
0.596,-0.038
0.596,-0.053
0.597,-0.053
0.597,-0.06
0.597,-0.06
0.597,-0.07
0.598,-0.07
0.598,-0.063
0.598,-0.065
0.598,-0.052
0.599,-0.052
0.599,-0.04
0.599,-0.04
0.599,-0.023
0.6,-0.023
0.6,-0.013
0.6,-0.015
0.6,-0.002
0.601,-0.003
0.601,0.003
0.601,0.003
0.601,0
0.602,0.002
0.602,0.005
0.602,0.003
0.602,0.008
0.603,0.007
0.603,0.012
0.603,0.012
0.603,0.015
0.604,0.012
0.604,0.007
0.604,0.007
0.604,0.002
0.605,0.005
0.605,0
0.605,0
0.605,-0.003
0.606,-0.005
0.606,0
0.606,-0.002
0.606,0.003
0.607,0
0.607,0.005
0.607,0.005
0.607,0.003
0.608,0.008
0.608,0.003
0.608,0.003
0.608,0.005
0.609,0.005
0.609,0.01
0.609,0.007
0.609,0.01
0.61,0.007
0.61,0.01
0.61,0.007
0.61,0.01
0.611,0.007
0.611,0.01
0.611,0.01
0.611,0.008
0.612,0.01
0.612,0.005
0.612,0.008
0.612,0.005
0.613,0.008
0.613,0.002
0.613,0.003
0.613,-0.003
0.614,-0.003
0.614,-0.007
0.614,-0.007
0.614,-0.013
0.615,-0.015
0.615,-0.012
0.615,-0.015
0.615,-0.012
0.616,-0.012
0.616,-0.015
0.616,-0.01
0.616,-0.017
0.617,-0.017
0.617,-0.013
0.617,-0.017
0.617,-0.022
0.618,-0.022
0.618,-0.028
0.618,-0.025
0.618,-0.028
0.619,-0.028
0.619,-0.022
0.619,-0.023
0.619,-0.018
0.62,-0.018
0.62,-0.013
0.62,-0.015
0.62,-0.003
0.621,-0.003
0.621,0.013
0.621,0.013
0.621,0.028
0.622,0.027
0.622,0.032
0.622,0.032
0.622,0.025
0.623,0.025
0.623,0.018
0.623,0.02
0.623,0.008
0.624,0.007
0.624,-0.007
0.624,-0.007
0.624,-0.013
0.625,-0.013
0.625,-0.017
0.625,-0.015
0.625,-0.018
0.625,-0.015
0.626,-0.022
0.626,-0.025
0.626,-0.018
0.626,-0.02
0.627,-0.007
0.627,-0.008
0.627,0
0.627,0
0.628,0.005
0.628,0.003
0.628,0.007
0.628,0.003
0.629,0
0.629,0.002
0.629,0.007
0.629,0.008
0.63,0.025
0.63,0.025
0.63,0.037
0.63,0.035
0.631,0.043
0.631,0.047
0.631,0.035
0.631,0.033
0.632,-0.03
0.632,-0.032
0.632,-0.125
0.632,-0.13
0.633,-0.213
0.633,-0.228
0.633,-0.213
0.633,-0.212
0.634,-0.155
0.634,-0.153
0.634,-0.078
0.634,-0.077
0.635,-0.03
0.635,-0.027
0.635,0.01
0.635,0.012
0.636,0.032
0.636,0.033
0.636,0.028
0.636,0.03
0.637,0.035
0.637,0.032
0.637,0.035
0.637,0.035
0.638,0.045
0.638,0.045
0.638,0.05
0.638,0.047
0.639,0.05
0.639,0.047
0.639,0.037
0.639,0.037
0.64,0.018
0.64,0.018
0.64,-0.013
0.64,-0.015
0.641,-0.05
0.641,-0.053
0.641,-0.073
0.641,-0.072
0.642,-0.063
0.642,-0.067
0.642,-0.052
0.642,-0.05
0.643,-0.035
0.643,-0.035
0.643,-0.02
0.643,-0.02
0.644,-0.008
0.644,-0.01
0.644,0
0.644,-0.003
0.645,0.01
0.645,0.008
0.645,0.017
0.645,0.018
0.646,0.013
0.646,0.015
0.646,0.003
0.646,0.002
0.647,-0.01
0.647,-0.01
0.647,-0.02
0.647,-0.017
0.648,-0.02
0.648,-0.022
0.648,-0.018
0.648,-0.02
0.649,-0.017
0.649,-0.017
0.649,-0.02
0.649,-0.018
0.65,-0.012
0.65,-0.013
0.65,-0.008
0.65,-0.01
0.651,-0.003
0.651,-0.002
0.651,-0.005
0.651,-0.003
0.652,0.005
0.652,0.002
0.652,0.013
0.652,0.012
0.653,0.02
0.653,0.018
0.653,0.025
0.653,0.025
0.654,0.02
0.654,0.02
0.654,0.01
0.654,0.01
0.655,0.003
0.655,0.005
0.655,0
0.655,0
0.656,-0.005
0.656,-0.003
0.656,-0.01
0.656,-0.007
0.657,-0.013
0.657,-0.01
0.657,-0.003
0.657,-0.005
0.658,0.003
0.658,0.003
0.658,0.013
0.658,0.012
0.659,0.02
0.659,0.02
0.659,0.022
0.659,0.022
0.66,0.018
0.66,0.022
0.66,0.017
0.66,0.017
0.661,0.008
0.661,0.008
0.661,0.002
0.661,0.002
0.662,-0.002
0.662,0
0.662,0.003
0.662,0.003
0.663,0
0.663,0.002
0.663,-0.003
0.663,0
0.664,-0.003
0.664,-0.002
0.664,0.002
0.664,-0.002
0.665,0.005
0.665,0.005
0.665,0.003
0.665,0.005
0.666,0.002
0.666,0.003
0.666,-0.003
0.666,-0.003
0.667,0.002
0.667,0.002
0.667,-0.002
0.667,-0.002
0.668,0.003
0.668,0.002
0.668,-0.003
0.668,0.002
0.669,-0.007
0.669,-0.003
0.669,-0.012
0.669,-0.01
0.67,-0.022
0.67,-0.022
0.67,-0.017
0.67,-0.017
0.671,-0.01
0.671,-0.01
0.671,-0.002
0.671,-0.002
0.672,0.015
0.672,0.017
0.672,0.087
0.672,0.092
0.673,0.183
0.673,0.188
0.673,0.308
0.673,0.313
0.674,0.458
0.674,0.465
0.674,0.64
0.674,0.635
0.675,0.142
0.675,0.105
0.675,-0.72
0.675,-0.737
0.676,-0.17
0.676,-0.51
0.676,0.863
0.676,0.615
0.677,-2.33
0.677,-2.065
0.677,-0.512
0.677,-0.428
0.678,0.51
0.678,0.533
0.678,0.917
0.678,0.897
0.679,0.127
0.679,0.113
0.679,-0.015
0.679,-0.003
0.68,0.095
0.68,0.092
0.68,0.057
0.68,0.083
0.681,0.142
0.681,0.143
0.681,0.203
0.681,0.207
0.682,0.245
0.682,0.247
0.682,0.265
0.682,0.26
0.683,-0.002
0.683,-0.017
0.683,-0.625
0.683,-0.642
0.684,-0.703
0.684,-0.652
0.684,-0.375
0.684,-0.363
0.685,-0.128
0.685,-0.12
0.685,0.005
0.685,0.01
0.686,0.058
0.686,0.06
0.686,0.075
0.686,0.075
0.687,0.085
0.687,0.083
0.687,0.088
0.688,0.088
0.688,0.075
0.688,0.075
0.688,0.06
0.689,0.062
0.689,0.053
0.689,0.057
0.689,0.052
0.69,0.052
0.69,0.055
0.69,0.057
0.69,0.053
0.691,0.057
0.691,0.053
0.691,0.055
0.691,0.05
0.692,0.053
0.692,0.047
0.692,0.048
0.692,0.04
0.693,0.042
0.693,0.035
0.693,0.033
0.693,0.038
0.694,0.033
0.694,0.037
0.694,0.037
0.694,0.03
0.695,0.032
0.695,0.027
0.695,0.027
0.695,0.033
0.696,0.03
0.696,0.035
0.696,0.032
0.696,0.035
0.697,0.033
0.697,0.028
0.697,0.028
0.697,0.02
0.698,0.017
0.698,0.022
0.698,0.022
0.698,0.018
0.699,0.02
0.699,0.015
0.699,0.02
0.699,0.015
0.7,0.017
0.7,0.013
0.7,0.018
0.7,0.013
0.701,0.017
0.701,0.013
0.701,0.015
0.701,0.01
0.702,0.012
0.702,0.008
0.702,0.01
0.702,0.007
0.703,0.007
0.703,0.002
0.703,0.003
0.703,-0.003
0.704,0
0.704,-0.005
0.704,-0.005
0.704,-0.002
0.705,-0.005
0.705,-0.002
0.705,-0.005
0.705,-0.002
0.706,-0.005
0.706,-0.002
0.706,-0.003
0.706,0.002
0.707,0.002
0.707,-0.003
0.707,-0.003
0.707,-0.002
0.708,-0.002
0.708,-0.003
0.708,-0.003
0.708,0
0.709,-0.002
0.709,0.002
0.709,0.002
0.709,0.007
0.71,0.008
0.71,0.003
0.71,0.007
0.71,0.002
0.711,0.003
0.711,0.007
0.711,0.005
0.711,0.012
0.712,0.01
0.712,0.013
0.712,0.012
0.712,0.007
0.713,0.007
0.713,-0.007
0.713,-0.007
0.713,-0.027
0.714,-0.028
0.714,-0.045
0.714,-0.043
0.714,-0.048
0.715,-0.047
0.715,-0.042
0.715,-0.045
0.715,-0.05
0.716,-0.047
0.716,-0.037
0.716,-0.037
0.716,-0.028
0.717,-0.027
0.717,-0.005
0.717,-0.005
0.717,0.007
0.718,0.003
0.718,0.007
0.718,0.003
0.718,0
0.719,0
0.719,-0.003
0.719,-0.005
0.719,-0.002
0.72,-0.007
0.72,-0.003
0.72,-0.005
0.72,0
0.721,0
0.721,-0.003
0.721,-0.005
0.721,0.005
0.722,0
0.722,0.008
0.722,0.008
0.722,0.017
0.723,0.015
0.723,0.013
0.723,0.015
0.723,0.007
0.724,0.007
0.724,0
0.724,0
0.724,-0.007
0.725,-0.007
0.725,-0.002
0.725,-0.002
0.725,0.003
0.726,0.002
0.726,0.008
0.726,0.008
0.726,0.015
0.727,0.015
0.727,0.025
0.727,0.025
0.727,0.037
0.728,0.035
0.728,0.038
0.728,0.038
0.728,0.032
0.729,0.032
0.729,0.023
0.729,0.023
0.729,0.028
0.73,0.027
0.73,0.023
0.73,0.022
0.73,0.008
0.731,0.007
0.731,-0.005
0.731,-0.003
0.731,-0.012
0.732,-0.013
0.732,-0.003
0.732,-0.002
0.732,-0.012
0.733,-0.012
0.733,-0.027
0.733,-0.027
0.733,-0.04
0.734,-0.04
0.734,-0.047
0.734,-0.047
0.734,-0.04
0.735,-0.04
0.735,-0.028
0.735,-0.028
0.735,-0.037
0.736,-0.038
0.736,-0.043
0.736,-0.045
0.736,-0.042
0.737,-0.043
0.737,-0.037
0.737,-0.037
0.737,-0.042
0.738,-0.04
0.738,-0.037
0.738,-0.037
0.738,-0.032
0.739,-0.032
0.739,-0.023
0.739,-0.023
0.739,-0.018
0.74,-0.022
0.74,-0.015
0.74,-0.017
0.74,-0.015
0.741,-0.015
0.741,-0.01
0.741,-0.01
0.741,-0.008
0.742,-0.008
0.742,-0.003
0.742,-0.005
0.742,-0.003
0.743,-0.005
0.743,0
0.743,-0.002
0.743,-0.007
0.744,-0.003
0.744,0
0.744,-0.002
0.744,-0.003
0.745,0
0.745,-0.005
0.745,-0.005
0.745,-0.01
0.746,-0.007
0.746,-0.015
0.746,-0.012
0.746,-0.018
0.747,-0.015
0.747,-0.022
0.747,-0.023
0.747,-0.017
0.748,-0.017
0.748,-0.012
0.748,-0.012
0.748,-0.005
0.749,-0.005
0.749,-0.002
0.749,-0.003
0.749,0.002
0.75,0.002
0.75,-0.002
0.75,0.002
0.75,-0.005
0.75,0.1
0.751,-0.002
0.751,-0.008
0.751,-0.007
0.751,-0.003
0.752,-0.002
0.752,-0.007
0.752,-0.002
0.752,0.002
0.753,0
0.753,-0.003
0.753,-0.002
0.753,-0.005
0.754,-0.005
0.754,-0.008
0.754,-0.007
0.754,-0.01
0.755,-0.008
0.755,-0.013
0.755,-0.01
0.755,-0.017
0.756,-0.013
0.756,-0.017
0.756,-0.015
0.756,-0.008
0.757,-0.01
0.757,-0.005
0.757,-0.003
0.757,0.002
0.758,0.002
0.758,0.005
0.758,0.003
0.758,0
0.759,0
0.759,-0.003
0.759,-0.005
0.759,-0.002
0.76,-0.005
0.76,-0.01
0.76,-0.008
0.76,-0.013
0.761,-0.013
0.761,-0.01
0.761,-0.012
0.761,-0.015
0.762,-0.012
0.762,-0.015
0.762,-0.013
0.762,-0.005
0.763,-0.005
0.763,0.002
0.763,0.002
0.763,0.008
0.764,0.008
0.764,0.015
0.764,0.015
0.764,0.012
0.765,0.015
0.765,0.01
0.765,0.008
0.765,0.013
0.766,0.012
0.766,0.067
0.766,0.072
0.766,0.152
0.767,0.153
0.767,0.262
0.767,0.267
0.767,0.395
0.768,0.402
0.768,0.593
0.768,0.598
0.768,0.21
0.769,0.175
0.769,-0.695
0.769,-0.777
0.769,0.09
0.77,-0.142
0.77,0.515
0.77,0.408
0.77,-2.57
0.771,-2.407
0.771,-0.932
0.771,-0.852
0.771,-0.03
0.772,-0.21
0.772,0.205
0.772,0.217
0.772,0.333
0.773,0.332
0.773,0.3
0.773,0.298
0.773,0.272
0.774,0.27
0.774,0.213
0.774,0.215
0.774,0.188
0.775,0.187
0.775,0.162
0.775,0.162
0.775,0.13
0.776,0.128
0.776,0.085
0.776,0.082
0.776,0.032
0.777,0.032
0.777,0.022
0.777,0.027
0.777,0.035
0.778,0.033
0.778,0.037
0.778,0.037
0.778,0.047
0.779,0.043
0.779,0.045
0.779,0.043
0.779,0.03
0.78,0.033
0.78,0.018
0.78,0.018
0.78,0.01
0.781,0.01
0.781,0.013
0.781,0.012
0.781,0.007
0.782,0.008
0.782,0.005
0.782,0.005
0.782,0.017
0.783,0.015
0.783,0.025
0.783,0.023
0.783,0.03
0.784,0.03
0.784,0.037
0.784,0.035
0.784,0.032
0.785,0.033
0.785,0.028
0.785,0.033
0.785,0.025
0.786,0.028
0.786,0.022
0.786,0.022
0.786,0.013
0.787,0.012
0.787,0.018
0.787,0.017
0.787,0.028
0.788,0.027
0.788,0.04
0.788,0.04
0.788,0.052
0.789,0.053
0.789,0.072
0.789,0.072
0.789,0.098
0.79,0.1
0.79,0.143
0.79,0.145
0.79,0.225
0.791,0.23
0.791,0.348
0.791,0.343
0.791,-0.398
0.792,-0.407
0.792,-0.443
0.792,-0.403
0.792,-0.198
0.793,-0.193
0.793,-0.082
0.793,-0.075
0.793,0.065
0.794,0.068
0.794,0.16
0.794,0.163
0.794,0.23
0.795,0.232
0.795,0.282
0.795,0.282
0.795,0.05
0.796,0.035
0.796,-0.542
0.796,-0.558
0.796,-0.622
0.797,-0.575
0.797,-0.298
0.797,-0.287
0.797,-0.035
0.798,-0.028
0.798,0.105
0.798,0.108
0.798,0.155
0.799,0.16
0.799,0.15
0.799,0.15
0.799,0.13
0.8,0.128
0.8,0.102
0.8,0.1
0.8,0.067
0.801,0.103
0.801,0.068
0.801,0.067
0.801,0.008
0.802,0.01
0.802,0.002
0.802,0.002
0.802,0.007
0.803,0.005
0.803,0.008
0.803,0.008
0.803,0.003
0.804,0.005
0.804,0.01
0.804,0.01
0.804,0.018
0.805,0.018
0.805,0.023
0.805,0.022
0.805,0.027
0.806,0.028
0.806,0.023
0.806,0.027
0.806,0.043
0.807,0.042
0.807,0.06
0.807,0.06
0.807,0.07
0.808,0.07
0.808,0.058
0.808,0.058
0.808,0.043
0.809,0.042
0.809,0.022
0.809,0.02
0.809,-0.002
0.81,-0.002
0.81,-0.015
0.81,-0.013
0.81,-0.017
0.811,-0.017
0.811,-0.02
0.811,-0.018
0.811,-0.022
0.812,-0.022
0.812,-0.027
0.812,-0.028
0.812,-0.033
0.813,-0.035
0.813,-0.04
0.813,-0.043
0.814,-0.038
0.814,-0.042
0.814,-0.045
0.814,-0.042
0.815,-0.035
0.815,-0.035
0.815,-0.043
0.815,-0.042
0.816,-0.035
0.816,-0.037
0.816,-0.04
0.816,-0.038
0.817,-0.017
0.817,-0.017
0.817,0.005
0.817,0.007
0.818,0.022
0.818,0.022
0.818,0.033
0.818,0.035
0.819,0.04
0.819,0.04
0.819,0.043
0.819,0.042
0.82,0.045
0.82,0.042
0.82,0.047
0.82,0.043
0.821,0.053
0.821,0.055
0.821,0.062
0.821,0.062
0.822,0.043
0.822,0.043
0.822,0.028
0.822,0.028
0.823,0.013
0.823,0.013
0.823,0.005
0.823,0.002
0.824,0.008
0.824,0.008
0.824,0.017
0.824,0.017
0.825,0.025
0.825,0.027
0.825,0.042
0.825,0.042
0.826,0.045
0.826,0.045
0.826,0.04
0.826,0.042
0.827,0.035
0.827,0.033
0.827,0.02
0.827,0.02
0.828,-0.002
0.828,-0.002
0.828,-0.015
0.828,-0.017
0.829,-0.023
0.829,-0.022
0.829,-0.028
0.829,-0.027
0.83,-0.032
0.83,-0.032
0.83,-0.027
0.83,-0.027
0.831,-0.018
0.831,-0.018
0.831,-0.01
0.831,-0.01
0.832,-0.003
0.832,-0.003
0.832,-0.012
0.832,-0.013
0.833,-0.027
0.833,-0.028
0.833,-0.037
0.833,-0.037
0.834,-0.03
0.834,-0.033
0.834,-0.025
0.834,-0.025
0.835,-0.007
0.835,-0.007
0.835,0.005
0.835,0.003
0.836,0.008
0.836,0.008
0.836,0.005
0.836,0.002
0.837,0.005
0.837,0
0.837,0.007
0.837,0.005
0.838,0.01
0.838,0.01
0.838,0.003
0.838,0.003
0.839,-0.013
0.839,-0.013
0.839,-0.02
0.839,-0.02
0.84,-0.017
0.84,-0.017
0.84,-0.012
0.84,-0.01
0.841,-0.012
0.841,-0.013
0.841,-0.008
0.841,-0.013
0.842,-0.022
0.842,-0.022
0.842,-0.032
0.842,-0.028
0.843,-0.033
0.843,-0.033
0.843,-0.035
0.843,-0.033
0.844,-0.025
0.844,-0.025
0.844,-0.017
0.844,-0.018
0.845,-0.01
0.845,-0.01
0.845,-0.007
0.845,-0.007
0.846,-0.012
0.846,-0.01
0.846,-0.005
0.846,-0.005
0.847,-0.002
0.847,-0.005
0.847,0
0.847,0
0.848,0.005
0.848,0.002
0.848,0.007
0.848,0.007
0.849,0.012
0.849,0.01
0.849,0.017
0.849,0.015
0.85,0.022
0.85,0.02
0.85,0.023
0.85,0.022
0.851,0.028
0.851,0.023
0.851,0
0.851,-0.003
0.852,-0.028
0.852,-0.028
0.852,-0.04
0.852,-0.04
0.853,-0.047
0.853,-0.047
0.853,-0.05
0.853,-0.048
0.854,-0.04
0.854,-0.04
0.854,-0.037
0.854,-0.038
0.855,-0.042
0.855,-0.042
0.855,-0.035
0.855,-0.037
0.856,-0.028
0.856,-0.032
0.856,-0.025
0.856,-0.028
0.857,-0.023
0.857,-0.027
0.857,-0.022
0.857,-0.023
0.858,-0.02
0.858,-0.02
0.858,-0.017
0.858,-0.015
0.859,-0.018
0.859,-0.017
0.859,-0.012
0.859,-0.012
0.86,-0.017
0.86,-0.013
0.86,-0.01
0.86,-0.007
0.861,-0.012
0.861,-0.007
0.861,-0.01
0.861,-0.005
0.862,-0.01
0.862,-0.012
0.862,-0.007
0.862,-0.005
0.863,-0.008
0.863,-0.008
0.863,-0.005
0.863,-0.008
0.864,0.002
0.864,0.003
0.864,0.073
0.864,0.077
0.865,0.165
0.865,0.168
0.865,0.28
0.865,0.285
0.866,0.42
0.866,0.428
0.866,0.595
0.866,0.587
0.867,0.108
0.867,0.072
0.867,-0.79
0.867,-0.822
0.868,0.087
0.868,-0.202
0.868,0.663
0.868,0.49
0.869,-2.358
0.869,-2.1
0.869,-0.612
0.869,-0.532
0.87,0.218
0.87,0.043
0.87,0.335
0.87,0.343
0.871,0.382
0.871,0.355
0.871,0.268
0.871,0.265
0.872,0.193
0.872,0.19
0.872,0.105
0.872,0.103
0.873,0.073
0.873,0.072
0.873,0.088
0.873,0.09
0.874,0.11
0.874,0.11
0.874,0.12
0.874,0.113
0.875,0.1
0.875,0.098
0.875,0.063
0.875,0.062
0.875,0.012
0.876,0.01
0.876,-0.012
0.876,-0.013
0.876,-0.003
0.877,-0.003
0.877,0.025
0.877,0.027
0.877,0.047
0.878,0.05
0.878,0.045
0.878,0.045
0.878,0.03
0.879,0.028
0.879,-0.04
0.879,-0.043
0.879,-0.14
0.88,-0.147
0.88,-0.235
0.88,-0.237
0.88,-0.25
0.881,-0.242
0.881,-0.192
0.881,-0.188
0.881,-0.133
0.882,-0.13
0.882,-0.077
0.882,-0.073
0.882,-0.043
0.883,-0.043
0.883,-0.012
0.883,-0.01
0.883,0.002
0.884,0.003
0.884,-0.002
0.884,0.002
0.884,0.012
0.885,0.01
0.885,0.018
0.885,0.015
0.885,0.028
0.886,0.027
0.886,0.042
0.886,0.043
0.886,0.06
0.887,0.06
0.887,0.072
0.887,0.072
0.887,0.075
0.888,0.073
0.888,0.08
0.888,0.077
0.888,0.085
0.889,0.088
0.889,0.083
0.889,0.083
0.889,0.075
0.89,0.077
0.89,0.083
0.89,0.083
0.89,0.1
0.891,0.1
0.891,0.12
0.891,0.12
0.891,0.17
0.892,0.173
0.892,0.253
0.892,0.26
0.892,0.403
0.893,0.405
0.893,-0.302
0.893,-0.31
0.893,-0.37
0.894,-0.337
0.894,-0.113
0.894,-0.107
0.894,-0.007
0.895,0
0.895,0.135
0.895,0.138
0.895,0.225
0.896,0.228
0.896,0.28
0.896,0.282
0.896,0.317
0.897,0.318
0.897,0.122
0.897,0.102
0.897,-0.483
0.898,-0.505
0.898,-0.633
0.898,-0.612
0.898,-0.348
0.899,-0.338
0.899,-0.08
0.899,-0.073
0.899,0.07
0.9,0.073
0.9,0.13
0.9,0.13
0.9,0.142
0.901,0.138
0.901,0.122
0.901,0.122
0.901,0.092
0.902,0.09
0.902,0.057
0.902,0.088
0.902,0.05
0.903,0.045
0.903,-0.025
0.903,-0.025
0.903,-0.045
0.904,-0.043
0.904,-0.05
0.904,-0.047
0.904,-0.052
0.905,-0.05
0.905,-0.053
0.905,-0.055
0.905,-0.047
0.906,-0.047
0.906,-0.037
0.906,-0.038
0.906,-0.03
0.907,-0.03
0.907,-0.015
0.907,-0.017
0.907,-0.005
0.908,-0.005
0.908,0.008
0.908,0.008
0.908,0.028
0.909,0.028
0.909,0.04
0.909,0.042
0.909,0.037
0.91,0.038
0.91,0.03
0.91,0.032
0.91,0.02
0.911,0.023
0.911,0.027
0.911,0.025
0.911,0.028
0.912,0.025
0.912,0.032
0.912,0.03
0.912,0.033
0.913,0.032
0.913,0.023
0.913,0.023
0.913,0.012
0.914,0.012
0.914,0
0.914,-0.002
0.914,-0.008
0.915,-0.008
0.915,-0.015
0.915,-0.013
0.915,-0.022
0.916,-0.017
0.916,-0.023
0.916,-0.022
0.916,-0.025
0.917,-0.023
0.917,-0.02
0.917,-0.02
0.917,-0.023
0.918,-0.023
0.918,-0.02
0.918,-0.02
0.918,-0.007
0.919,-0.007
0.919,0.002
0.919,0.003
0.919,0.007
0.92,0.008
0.92,0.002
0.92,0
0.92,-0.01
0.921,-0.01
0.921,-0.017
0.921,-0.013
0.921,-0.018
0.922,-0.017
0.922,-0.023
0.922,-0.023
0.922,-0.013
0.923,-0.013
0.923,-0.005
0.923,-0.005
0.923,0.012
0.924,0.012
0.924,0.018
0.924,0.015
0.924,0.01
0.925,0.015
0.925,0.01
0.925,0.013
0.925,0.01
0.926,0.01
0.926,0.015
0.926,0.013
0.926,0.018
0.927,0.017
0.927,0.02
0.927,0.015
0.927,-0.002
0.928,-0.003
0.928,-0.023
0.928,-0.025
0.928,-0.047
0.929,-0.045
0.929,-0.065
0.929,-0.065
0.929,-0.078
0.93,-0.08
0.93,-0.077
0.93,-0.075
0.93,-0.058
0.931,-0.055
0.931,-0.025
0.931,-0.025
0.931,-0.003
0.932,-0.003
0.932,0.007
0.932,0.008
0.932,0.015
0.933,0.017
0.933,0.012
0.933,0.012
0.933,0.017
0.934,0.013
0.934,0.017
0.934,0.017
0.934,0.013
0.935,0.015
0.935,0.01
0.935,0.013
0.935,0.01
0.936,0.013
0.936,0.01
0.936,0.012
0.936,0.015
0.937,0.012
0.937,0.017
0.937,0.012
0.938,0.017
0.938,0.017
0.938,0.013
0.938,0.017
0.939,0.01
0.939,0.01
0.939,-0.008
0.939,-0.007
0.94,-0.017
0.94,-0.013
0.94,-0.022
0.94,-0.017
0.941,-0.022
0.941,-0.022
0.941,-0.017
0.941,-0.017
0.942,-0.005
0.942,-0.005
0.942,0.007
0.942,0.007
0.943,0.01
0.943,0.007
0.943,0.008
0.943,0.003
0.944,0.01
0.944,0.012
0.944,0.017
0.944,0.017
0.945,0.022
0.945,0.018
0.945,0.008
0.945,0.008
0.946,0.002
0.946,0
0.946,0.007
0.946,0.005
0.947,0.01
0.947,0.012
0.947,0.018
0.947,0.018
0.948,0.023
0.948,0.022
0.948,0.027
0.948,0.028
0.949,0.025
0.949,0.027
0.949,0.007
0.949,0.005
0.95,-0.012
0.95,-0.005
0.95,0.058
0.95,0.062
0.951,0.145
0.951,0.15
0.951,0.255
0.951,0.258
0.952,0.417
0.952,0.425
0.952,0.538
0.952,0.498
0.953,-0.145
0.953,-0.18
0.953,-0.857
0.953,-0.853
0.954,-0.118
0.954,-0.285
0.954,0.813
0.954,0.15
0.955,-2.497
0.955,-1.97
0.955,-0.395
0.955,-0.337
0.956,0.26
0.956,0.277
0.956,0.442
0.956,0.438
0.957,0.363
0.957,0.36
0.957,0.273
0.957,0.272
0.958,0.193
0.958,0.188
0.958,0.12
0.958,0.118
0.959,0.088
0.959,0.087
0.959,0.08
0.959,0.083
0.96,0.078
0.96,0.082
0.96,0.073
0.96,0.073
0.961,0.055
0.961,0.053
0.961,0.015
0.961,0.013
0.962,-0.037
0.962,-0.04
0.962,-0.073
0.962,-0.075
0.963,-0.083
0.963,-0.083
0.963,-0.073
0.963,-0.073
0.964,-0.057
0.964,-0.058
0.964,-0.047
0.964,-0.047
0.965,-0.038
0.965,-0.038
0.965,-0.025
0.965,-0.025
0.966,-0.02
0.966,-0.023
0.966,-0.018
0.966,-0.018
0.967,-0.013
0.967,-0.015
0.967,-0.008
0.967,-0.013
0.968,-0.007
0.968,-0.008
0.968,0.002
0.968,0
0.969,0.008
0.969,0.007
0.969,0.013
0.969,0.013
0.97,0.017
0.97,0.015
0.97,0.012
0.97,0.01
0.971,0.015
0.971,0.012
0.971,0.017
0.971,0.015
0.972,0.025
0.972,0.022
0.972,0.025
0.972,0.023
0.973,0.028
0.973,0.023
0.973,0.027
0.973,0.027
0.974,0.02
0.974,0.022
0.974,0.013
0.974,0.012
0.975,0
0.975,0
0.975,-0.01
0.975,-0.008
0.976,-0.017
0.976,-0.015
0.976,-0.018
0.976,-0.017
0.977,-0.02
0.977,-0.017
0.977,-0.022
0.977,-0.018
0.978,-0.022
0.978,-0.02
0.978,-0.025
0.978,-0.025
0.979,-0.018
0.979,-0.018
0.979,-0.003
0.979,-0.003
0.98,0.01
0.98,0.01
0.98,0.018
0.98,0.017
0.981,0.022
0.981,0.02
0.981,0.017
0.981,0.018
0.982,0.008
0.982,0.008
0.982,0.002
0.982,0.002
0.983,-0.007
0.983,-0.003
0.983,-0.007
0.983,-0.007
0.984,-0.012
0.984,-0.013
0.984,-0.008
0.984,-0.012
0.985,-0.005
0.985,-0.01
0.985,-0.003
0.985,-0.005
0.986,0
0.986,-0.003
0.986,0
0.986,0.002
0.987,-0.003
0.987,-0.002
0.987,-0.008
0.987,-0.007
0.988,-0.017
0.988,-0.017
0.988,-0.027
0.988,-0.028
0.989,-0.038
0.989,-0.037
0.989,-0.043
0.989,-0.042
0.99,-0.038
0.99,-0.038
0.99,-0.043
0.99,-0.042
0.991,-0.027
0.991,-0.027
0.991,-0.013
0.991,-0.017
0.992,-0.008
0.992,-0.01
0.992,0
0.992,-0.003
0.993,0.007
0.993,0.007
0.993,0.013
0.993,0.012
0.994,0.007
0.994,0.007
0.994,0.012
0.994,0.013
0.995,0.032
0.995,0.032
0.995,0.058
0.995,0.058
0.996,0.085
0.996,0.087
0.996,0.097
0.996,0.095
0.997,0.1
0.997,0.1
0.997,0.108
0.997,0.108
0.998,0.125
0.998,0.128
0.998,0.195
0.998,0.198
0.999,0.323
0.999,0.405
0.999,-0.095
0.999,-0.127
1,-0.357
1,-0.387
1,-0.248
1,-0.235
1,-0.087
1.001,0.1
1.001,-0.08
1.001,0.067
1.002,0.073
1.002,0.185
1.002,0.188
1.002,0.265
1.002,0.268
1.003,0.318
1.003,0.33
1.003,0.29
1.004,0.283
1.004,-0.205
1.004,-0.24
1.004,-0.655
1.004,-0.66
1.005,-0.523
1.005,-0.512
1.005,-0.237
1.006,-0.227
1.006,-0.03
1.006,-0.025
1.006,0.068
1.006,0.072
1.007,0.108
1.007,0.108
1.007,0.117
1.008,0.115
1.008,0.127
1.008,0.13
1.008,0.125
1.008,0.12
1.009,0.167
1.009,0.163
1.009,0.085
1.01,0.09
1.01,0.083
1.01,0.083
1.01,0.082
1.01,0.082
1.011,0.07
1.011,0.068
1.011,0.048
1.012,0.048
1.012,0.025
1.012,0.023
1.012,0.013
1.012,0.017
1.013,0.025
1.013,0.025
1.013,0.03
1.014,0.028
1.014,0.032
1.014,0.03
1.014,-0.003
1.014,-0.007
1.015,-0.085
1.015,-0.09
1.015,-0.183
1.016,-0.187
1.016,-0.225
1.016,-0.225
1.016,-0.185
1.016,-0.182
1.017,-0.105
1.017,-0.102
1.017,-0.02
1.018,-0.018
1.018,0.043
1.018,0.045
1.018,0.077
1.018,0.078
1.019,0.088
1.019,0.09
1.019,0.085
1.02,0.087
1.02,0.082
1.02,0.082
1.02,0.08
1.02,0.08
1.021,0.083
1.021,0.083
1.021,0.08
1.022,0.082
1.022,0.077
1.022,0.077
1.022,0.067
1.022,0.068
1.023,0.057
1.023,0.058
1.023,0.045
1.024,0.047
1.024,0.038
1.024,0.04
1.024,0.03
1.024,0.03
1.025,0.022
1.025,0.023
1.025,0.013
1.026,0.017
1.026,0.008
1.026,0.012
1.026,0.003
1.026,0.005
1.027,-0.002
1.027,-0.002
1.027,-0.008
1.028,-0.008
1.028,-0.027
1.028,-0.027
1.028,-0.032
1.028,-0.033
1.029,-0.027
1.029,-0.028
1.029,-0.023
1.03,-0.025
1.03,-0.023
1.03,-0.023
1.03,-0.02
1.03,-0.02
1.031,-0.023
1.031,-0.022
1.031,-0.017
1.032,-0.017
1.032,-0.012
1.032,-0.013
1.032,-0.008
1.032,-0.008
1.033,-0.005
1.033,-0.007
1.033,-0.002
1.034,-0.003
1.034,-0.007
1.034,-0.007
1.034,-0.013
1.034,-0.015
1.035,-0.012
1.035,-0.017
1.035,-0.012
1.036,-0.015
1.036,-0.008
1.036,-0.013
1.036,-0.01
1.036,-0.008
1.037,-0.013
1.037,-0.015
1.037,-0.008
1.038,-0.012
1.038,-0.007
1.038,-0.008
1.038,-0.002
1.038,0
1.039,-0.005
1.039,-0.003
1.039,-0.008
1.04,-0.005
1.04,-0.017
1.04,-0.012
1.04,-0.02
1.04,-0.018
1.041,-0.023
1.041,-0.023
1.041,-0.028
1.042,-0.025
1.042,-0.03
1.042,-0.028
1.042,-0.023
1.042,-0.027
1.043,-0.015
1.043,-0.015
1.043,-0.01
1.044,-0.012
1.044,-0.015
1.044,-0.015
1.044,-0.012
1.044,-0.013
1.045,-0.007
1.045,-0.007
1.045,-0.013
1.046,-0.013
1.046,-0.025
1.046,-0.025
1.046,-0.022
1.046,-0.023
1.047,-0.015
1.047,-0.017
1.047,-0.007
1.048,-0.007
1.048,0.002
1.048,0.002
1.048,0.012
1.048,0.013
1.049,0.028
1.049,0.03
1.049,0.045
1.05,0.045
1.05,0.06
1.05,0.057
1.05,0.063
1.05,0.06
1.051,0.053
1.051,0.055
1.051,0.05
1.052,0.048
1.052,0.058
1.052,0.058
1.052,0.055
1.052,0.058
1.053,0.045
1.053,0.045
1.053,0.028
1.054,0.027
1.054,0.023
1.054,0.023
1.054,0.017
1.054,0.015
1.055,0.005
1.055,0.003
1.055,0
1.056,0
1.056,-0.022
1.056,-0.023
1.056,-0.065
1.056,-0.077
1.057,-0.065
1.057,-0.063
1.057,0.033
1.058,0.037
1.058,0.155
1.058,0.16
1.058,0.295
1.058,0.302
1.059,0.458
1.059,0.467
1.059,0.612
1.06,0.597
1.06,0.03
1.06,-0.008
1.06,-0.787
1.06,-0.793
1.061,-0.098
1.061,-0.397
1.061,0.637
1.062,0.322
1.062,-2.713
1.062,-2.152
1.062,-0.407
1.062,-0.338
1.063,0.215
1.063,0.217
1.063,0.363
1.063,0.378
1.064,0.345
1.064,0.342
1.064,0.263
1.065,0.26
1.065,0.19
1.065,0.185
1.065,0.12
1.065,0.117
1.066,0.087
1.066,0.087
1.066,0.075
1.067,0.077
1.067,0.065
1.067,0.065
1.067,0.055
1.067,0.057
1.068,0.05
1.068,0.05
1.068,0.045
1.069,0.045
1.069,0.037
1.069,0.037
1.069,0.02
1.069,0.02
1.07,0.008
1.07,0.007
1.07,-0.012
1.071,-0.013
1.071,-0.022
1.071,-0.022
1.071,-0.035
1.071,-0.037
1.072,-0.04
1.072,-0.04
1.072,-0.035
1.073,-0.038
1.073,-0.043
1.073,-0.043
1.073,-0.05
1.073,-0.052
1.074,-0.048
1.074,-0.052
1.074,-0.047
1.075,-0.052
1.075,-0.037
1.075,-0.037
1.075,-0.025
1.075,-0.027
1.076,-0.02
1.076,-0.018
1.076,-0.013
1.077,-0.013
1.077,-0.015
1.077,-0.015
1.077,-0.02
1.077,-0.017
1.078,-0.013
1.078,-0.013
1.078,-0.018
1.079,-0.018
1.079,-0.013
1.079,-0.017
1.079,-0.012
1.079,-0.012
1.08,-0.01
1.08,-0.01
1.08,-0.007
1.081,-0.008
1.081,-0.002
1.081,-0.003
1.081,0.002
1.081,-0.002
1.082,0.007
1.082,0.007
1.082,0.01
1.083,0.01
1.083,0.018
1.083,0.017
1.083,0.013
1.083,0.013
1.084,0.008
1.084,0.008
1.084,0.005
1.085,0.007
1.085,0.003
1.085,0.008
1.085,0.003
1.085,0.008
1.086,0.003
1.086,0.003
1.086,0.007
1.087,0.005
1.087,0.01
1.087,0.012
1.087,0.02
1.087,0.018
1.088,0.028
1.088,0.028
1.088,0.035
1.089,0.033
1.089,0.038
1.089,0.037
1.089,0.042
1.089,0.042
1.09,0.037
1.09,0.037
1.09,0.028
1.091,0.027
1.091,0.02
1.091,0.022
1.091,0.017
1.091,0.02
1.092,0.017
1.092,0.022
1.092,0.013
1.093,0.015
1.093,0.007
1.093,0.01
1.093,0.003
1.093,0.005
1.094,-0.002
1.094,-0.002
1.094,-0.008
1.095,-0.008
1.095,-0.022
1.095,-0.022
1.095,-0.033
1.095,-0.032
1.096,-0.037
1.096,-0.033
1.096,-0.027
1.097,-0.027
1.097,-0.015
1.097,-0.015
1.097,-0.01
1.097,-0.01
1.098,0.002
1.098,0.002
1.098,0.007
1.099,0.007
1.099,0.002
1.099,0.002
1.099,-0.005
1.099,-0.007
1.1,-0.01
1.1,-0.01
1.1,0
1.101,0
1.101,0.007
1.101,0.007
1.101,0.003
1.101,0.008
1.102,0.025
1.102,0.027
1.102,0.068
1.103,0.07
1.103,0.113
1.103,0.117
1.103,0.183
1.103,0.187
1.104,0.295
1.104,0.393
1.104,0.002
1.105,-0.048
1.105,-0.355
1.105,-0.378
1.105,-0.273
1.105,-0.263
1.106,-0.095
1.106,-0.092
1.106,0.052
1.107,0.058
1.107,0.178
1.107,0.182
1.107,0.27
1.107,0.273
1.108,0.318
1.108,0.338
1.108,0.318
1.109,0.313
1.109,-0.077
1.109,-0.108
1.109,-0.59
1.109,-0.602
1.11,-0.498
1.11,-0.487
1.11,-0.2
1.111,-0.188
1.111,0.017
1.111,0.023
1.111,0.122
1.111,0.122
1.112,0.145
1.112,0.145
1.112,0.132
1.113,0.132
1.113,0.11
1.113,0.11
1.113,0.083
1.113,0.07
1.114,0.103
1.114,0.107
1.114,0.03
1.115,0.025
1.115,0.017
1.115,0.017
1.115,0.023
1.115,0.023
1.116,0.027
1.116,0.025
1.116,0.022
1.117,0.023
1.117,0.013
1.117,0.017
1.117,0.012
1.117,0.012
1.118,0.005
1.118,0.007
1.118,-0.002
1.119,0
1.119,-0.003
1.119,-0.003
1.119,0
1.119,-0.005
1.12,0
1.12,-0.002
1.12,-0.007
1.121,-0.005
1.121,-0.012
1.121,-0.013
1.121,-0.02
1.121,-0.018
1.122,-0.022
1.122,-0.02
1.122,-0.012
1.123,-0.013
1.123,-0.01
1.123,-0.012
1.123,-0.015
1.123,-0.015
1.124,-0.018
1.124,-0.015
1.124,-0.018
1.125,-0.02
1.125,-0.017
1.125,-0.022
1.125,-0.017
1.125,-0.018
1.126,-0.008
1.126,-0.01
1.126,-0.005
1.127,-0.007
1.127,0.003
1.127,0.002
1.127,0.013
1.127,0.01
1.128,0.027
1.128,0.028
1.128,0.04
1.129,0.038
1.129,0.033
1.129,0.032
1.129,0.022
1.129,0.023
1.13,0.015
1.13,0.015
1.13,0.01
1.131,0.008
1.131,0.013
1.131,0.012
1.131,0.007
1.131,0.008
1.132,0
1.132,0.002
1.132,-0.007
1.133,-0.005
1.133,-0.01
1.133,-0.008
1.133,-0.015
1.133,-0.012
1.134,-0.017
1.134,-0.017
1.134,-0.012
1.135,-0.012
1.135,-0.007
1.135,-0.01
1.135,-0.007
1.135,-0.007
1.136,-0.01
1.136,-0.01
1.136,-0.013
1.137,-0.01
1.137,-0.017
1.137,-0.017
1.137,-0.025
1.137,-0.027
1.138,-0.023
1.138,-0.025
1.138,-0.02
1.139,-0.018
1.139,-0.022
1.139,-0.02
1.139,-0.013
1.139,-0.017
1.14,-0.013
1.14,-0.015
1.14,-0.013
1.141,-0.012
1.141,-0.017
1.141,-0.013
1.141,-0.017
1.141,-0.013
1.142,-0.008
1.142,-0.008
1.142,0.002
1.143,0
1.143,0.008
1.143,0.007
1.143,0.008
1.143,0.01
1.144,0.012
1.144,0.008
1.144,0.012
1.145,0.013
1.145,0.007
1.145,0.008
1.145,0.01
1.145,0.008
1.146,-0.002
1.146,0
1.146,-0.01
1.147,-0.008
1.147,-0.018
1.147,-0.018
1.147,-0.032
1.147,-0.033
1.148,-0.048
1.148,-0.05
1.148,-0.043
1.149,-0.045
1.149,-0.037
1.149,-0.037
1.149,-0.018
1.149,-0.018
1.15,0.008
1.15,0.01
1.15,0.052
1.151,0.053
1.151,0.088
1.151,0.09
1.151,0.118
1.151,0.12
1.152,0.095
1.152,0.093
1.152,0.067
1.153,0.065
1.153,0.027
1.153,0.013
1.153,0.038
1.153,0.042
1.154,0.18
1.154,0.188
1.154,0.438
1.155,0.462
1.155,0.192
1.155,0.158
1.155,-0.682
1.155,-0.802
1.156,-0.098
1.156,-0.405
1.156,0.837
1.157,0.792
1.157,-2.447
1.157,-2.43
1.157,-1
1.157,-0.913
1.158,0.155
1.158,0.165
1.158,0.48
1.159,0.497
1.159,0.47
1.159,0.467
1.159,0.377
1.159,0.375
1.16,0.295
1.16,0.29
1.16,0.178
1.161,0.175
1.161,0.123
1.161,0.122
1.161,0.102
1.161,0.1
1.162,0.087
1.162,0.085
1.162,0.045
1.163,0.042
1.163,0.007
1.163,0.003
1.163,-0.013
1.163,-0.012
1.164,-0.015
1.164,-0.013
1.164,-0.018
1.165,-0.013
1.165,-0.005
1.165,-0.007
1.165,0
1.165,-0.003
1.166,-0.008
1.166,-0.008
1.166,0.002
1.167,0.002
1.167,0.01
1.167,0.008
1.167,0.015
1.167,0.013
1.168,0.022
1.168,0.02
1.168,0.027
1.169,0.025
1.169,0.02
1.169,0.018
1.169,0.012
1.169,0.013
1.17,0.007
1.17,0.008
1.17,0.005
1.171,0.008
1.171,-0.002
1.171,-0.002
1.171,-0.022
1.171,-0.022
1.172,-0.047
1.172,-0.047
1.172,-0.062
1.173,-0.062
1.173,-0.068
1.173,-0.068
1.173,-0.077
1.173,-0.075
1.174,-0.067
1.174,-0.065
1.174,-0.055
1.175,-0.053
1.175,-0.018
1.175,-0.017
1.175,0.008
1.175,0.008
1.176,0.022
1.176,0.022
1.176,0.028
1.177,0.027
1.177,0.022
1.177,0.023
1.177,0.017
1.177,0.02
1.178,0.012
1.178,0.01
1.178,0.003
1.179,0
1.179,0.003
1.179,0.005
1.179,0.012
1.179,0.01
1.18,0.018
1.18,0.017
1.18,0.022
1.181,0.02
1.181,0.023
1.181,0.022
1.181,0.013
1.181,0.015
1.182,0.003
1.182,0.005
1.182,-0.005
1.183,-0.007
1.183,-0.003
1.183,-0.005
1.183,0.002
1.183,-0.002
1.184,0.007
1.184,0.007
1.184,0.015
1.185,0.013
1.185,0.017
1.185,0.015
1.185,0.022
1.185,0.02
1.186,0.013
1.186,0.017
1.186,0.008
1.187,0.008
1.187,0.013
1.187,0.012
1.187,0.017
1.188,0.018
1.188,0.013
1.188,0.013
1.188,0.005
1.188,0.003
1.189,0.008
1.189,0.008
1.189,0.002
1.19,0.002
1.19,-0.007
1.19,-0.007
1.19,-0.02
1.19,-0.018
1.191,-0.03
1.191,-0.028
1.191,-0.022
1.192,-0.022
1.192,-0.005
1.192,-0.005
1.192,0.005
1.192,0.003
1.193,0.012
1.193,0.012
1.193,0.015
1.194,0.013
1.194,0.01
1.194,0.012
1.194,-0.002
1.194,-0.002
1.195,-0.013
1.195,-0.013
1.195,-0.018
1.196,-0.018
1.196,-0.01
1.196,-0.01
1.196,-0.005
1.196,-0.003
1.197,0.008
1.197,0.005
1.197,0.015
1.198,0.01
1.198,0.013
1.198,0.013
1.198,0.008
1.198,0.008
1.199,0.013
1.199,0.008
1.199,0.002
1.2,0
1.2,0.005
1.2,-0.002
1.2,0.003
1.2,0.002
1.201,-0.003
1.201,0.003
1.201,-0.018
1.202,-0.02
1.202,-0.035
1.202,-0.035
1.202,-0.043
1.202,-0.042
1.203,-0.037
1.203,-0.04
1.203,-0.035
1.204,-0.038
1.204,-0.03
1.204,-0.032
1.204,-0.023
1.204,-0.022
1.205,-0.015
1.205,-0.013
1.205,-0.007
1.206,-0.008
1.206,0.002
1.206,0.002
1.206,0.013
1.206,0.01
1.207,0.017
1.207,0.012
1.207,0.022
1.208,0.022
1.208,0.03
1.208,0.03
1.208,0.038
1.208,0.035
1.209,0.05
1.209,0.052
1.209,0.065
1.21,0.065
1.21,0.077
1.21,0.077
1.21,0.088
1.21,0.088
1.211,0.105
1.211,0.105
1.211,0.123
1.212,0.123
1.212,0.175
1.212,0.178
1.212,0.263
1.212,0.267
1.213,0.395
1.213,0.405
1.213,-0.348
1.214,-0.355
1.214,-0.382
1.214,-0.355
1.214,-0.148
1.214,-0.142
1.215,-0.04
1.215,-0.035
1.215,0.105
1.216,0.11
1.216,0.203
1.216,0.207
1.216,0.268
1.216,0.27
1.217,0.312
1.217,0.312
1.217,0.115
1.218,0.097
1.218,-0.482
1.218,-0.502
1.218,-0.63
1.218,-0.607
1.219,-0.35
1.219,-0.338
1.219,-0.085
1.22,-0.077
1.22,0.07
1.22,0.075
1.22,0.13
1.22,0.132
1.221,0.14
1.221,0.133
1.221,0.117
1.222,0.117
1.222,0.092
1.222,0.092
1.222,0.062
1.222,0.067
1.223,0.1
1.223,0.062
1.223,0.012
1.224,0.017
1.224,0.012
1.224,0.017
1.224,0.022
1.224,0.025
1.225,0.02
1.225,0.022
1.225,0.015
1.226,0.017
1.226,0.012
1.226,0.015
1.226,0.008
1.226,0.008
1.227,0.012
1.227,0.008
1.227,0.012
1.228,0.012
1.228,0.018
1.228,0.015
1.228,0.022
1.228,0.017
1.229,0.02
1.229,0.017
1.229,0.013
1.23,0.017
1.23,0.008
1.23,0.008
1.23,0
1.23,0
1.231,-0.017
1.231,-0.015
1.231,-0.027
1.232,-0.027
1.232,-0.04
1.232,-0.042
1.232,-0.047
1.232,-0.045
1.233,-0.05
1.233,-0.05
1.233,-0.057
1.234,-0.058
1.234,-0.063
1.234,-0.063
1.234,-0.068
1.234,-0.068
1.235,-0.07
1.235,-0.07
1.235,-0.057
1.236,-0.057
1.236,-0.04
1.236,-0.04
1.236,0.042
1.236,0.045
1.237,0.133
1.237,0.137
1.237,0.255
1.238,0.262
1.238,0.417
1.238,0.425
1.238,0.59
1.238,0.578
1.239,0.057
1.239,0.018
1.239,-0.802
1.24,-0.818
1.24,-0.01
1.24,-0.307
1.24,0.707
1.24,0.443
1.241,-2.515
1.241,-1.995
1.241,-0.547
1.242,-0.477
1.242,0.222
1.242,0.24
1.242,0.343
1.242,0.347
1.243,0.382
1.243,0.367
1.243,0.293
1.244,0.29
1.244,0.225
1.244,0.222
1.244,0.133
1.244,0.133
1.245,0.093
1.245,0.093
1.245,0.082
1.246,0.082
1.246,0.072
1.246,0.072
1.246,0.06
1.246,0.058
1.247,0.047
1.247,0.047
1.247,0.042
1.248,0.048
1.248,0.045
1.248,0.047
1.248,0.035
1.248,0.033
1.249,0.018
1.249,0.017
1.249,-0.015
1.25,-0.017
1.25,-0.058
1.25,-0.058
1.25,-0.067
1.25,-0.063
1.251,-0.047
1.251,0.1
1.251,-0.047
1.252,-0.03
1.252,-0.03
1.252,-0.022
1.252,-0.022
1.252,-0.03
1.253,-0.028
1.253,-0.033
1.253,-0.032
1.254,-0.035
1.254,-0.037
1.254,-0.033
1.254,-0.033
1.254,-0.037
1.255,-0.035
1.255,-0.03
1.255,-0.032
1.256,-0.025
1.256,-0.027
1.256,-0.015
1.256,-0.015
1.256,-0.005
1.257,-0.008
1.257,-0.003
1.257,-0.005
1.258,0
1.258,-0.002
1.258,0.005
1.258,0.005
1.258,0.01
1.259,0.008
1.259,0.017
1.259,0.015
1.26,0.02
1.26,0.015
1.26,0.012
1.26,0.013
1.26,0.01
1.261,0.01
1.261,0.015
1.261,0.017
1.262,0.012
1.262,0.017
1.262,0.022
1.262,0.02
1.262,0.023
1.263,0.022
1.263,0.025
1.263,0.027
1.264,0.023
1.264,0.027
1.264,0.03
1.264,0.028
1.264,0.043
1.265,0.045
1.265,0.067
1.265,0.068
1.266,0.078
1.266,0.08
1.266,0.072
1.266,0.07
1.266,0.003
1.267,0.002
1.267,-0.093
1.267,-0.098
1.268,-0.195
1.268,-0.203
1.268,-0.19
1.268,-0.187
1.268,-0.135
1.269,-0.132
1.269,-0.08
1.269,-0.078
1.27,-0.03
1.27,-0.027
1.27,0.005
1.27,0.007
1.27,0.017
1.271,0.018
1.271,0.015
1.271,0.018
1.272,0.005
1.272,0.003
1.272,-0.008
1.272,-0.008
1.272,-0.013
1.273,-0.01
1.273,-0.015
1.273,-0.017
1.274,-0.01
1.274,-0.01
1.274,-0.005
1.274,-0.005
1.274,0.01
1.275,0.01
1.275,0.028
1.275,0.028
1.276,0.033
1.276,0.03
1.276,0.025
1.276,0.027
1.276,0.017
1.277,0.017
1.277,0.007
1.277,0.005
1.278,-0.007
1.278,-0.008
1.278,-0.027
1.278,-0.027
1.278,-0.037
1.279,-0.037
1.279,-0.045
1.279,-0.043
1.28,-0.038
1.28,-0.038
1.28,-0.03
1.28,-0.03
1.28,-0.013
1.281,-0.012
1.281,0.003
1.281,0.005
1.282,0.02
1.282,0.017
1.282,0.028
1.282,0.027
1.282,0.032
1.283,0.032
1.283,0.04
1.283,0.04
1.284,0.043
1.284,0.038
1.284,0.032
1.284,0.032
1.284,0.02
1.285,0.02
1.285,0.015
1.285,0.017
1.286,0.012
1.286,0.015
1.286,0.007
1.286,0.007
1.286,-0.002
1.287,-0.002
1.287,-0.005
1.287,-0.005
1.288,0.003
1.288,0.002
1.288,0.018
1.288,0.02
1.288,0.03
1.289,0.032
1.289,0.037
1.289,0.035
1.29,0.038
1.29,0.035
1.29,0.028
1.29,0.03
1.29,0.025
1.291,0.025
1.291,0.018
1.291,0.02
1.292,0.01
1.292,0.012
1.292,0.005
1.292,0.007
1.292,0.002
1.293,0
1.293,0.005
1.293,0
1.294,0.005
1.294,0.002
1.294,0.005
1.294,0.005
1.294,0.01
1.295,0.01
1.295,0.018
1.295,0.017
1.296,0.023
1.296,0.023
1.296,0.028
1.296,0.027
1.296,0.032
1.297,0.033
1.297,0.028
1.297,0.028
1.298,0.033
1.298,0.033
1.298,0.03
1.298,0.032
1.298,0.022
1.299,0.022
1.299,0.003
1.299,0.003
1.3,-0.015
1.3,-0.018
1.3,-0.03
1.3,-0.033
1.3,-0.03
1.301,-0.03
1.301,-0.027
1.301,-0.025
1.302,-0.032
1.302,-0.028
1.302,-0.04
1.302,-0.035
1.302,-0.045
1.303,-0.047
1.303,-0.04
1.303,-0.038
1.304,-0.025
1.304,-0.025
1.304,-0.008
1.304,-0.008
1.304,-0.003
1.305,-0.005
1.305,0
1.305,0
1.306,-0.003
1.306,-0.002
1.306,-0.007
1.306,-0.007
1.306,-0.015
1.307,-0.013
1.307,-0.027
1.307,-0.027
1.308,-0.03
1.308,-0.028
1.308,-0.033
1.308,-0.033
1.308,-0.04
1.309,-0.038
1.309,-0.032
1.309,-0.032
1.31,-0.025
1.31,-0.027
1.31,-0.02
1.31,-0.02
1.31,-0.013
1.311,-0.013
1.311,-0.005
1.311,-0.005
1.312,0
1.312,-0.003
1.312,-0.01
1.312,-0.012
1.312,-0.03
1.313,-0.032
1.313,-0.047
1.313,-0.047
1.313,-0.06
1.314,-0.06
1.314,-0.067
1.314,-0.068
1.315,-0.063
1.315,-0.067
1.315,-0.055
1.315,-0.055
1.315,-0.04
1.316,-0.042
1.316,-0.02
1.316,-0.018
1.317,0.005
1.317,0.002
1.317,0.023
1.317,0.025
1.317,0.05
1.318,0.053
1.318,0.075
1.318,0.077
1.319,0.108
1.319,0.112
1.319,0.157
1.319,0.162
1.319,0.247
1.32,0.252
1.32,0.398
1.32,0.433
1.321,-0.242
1.321,-0.258
1.321,-0.39
1.321,-0.388
1.321,-0.168
1.322,-0.16
1.322,-0.043
1.322,-0.037
1.323,0.117
1.323,0.122
1.323,0.223
1.323,0.228
1.323,0.298
1.324,0.302
1.324,0.35
1.324,0.357
1.325,0.243
1.325,0.225
1.325,-0.355
1.325,-0.377
1.325,-0.6
1.326,-0.592
1.326,-0.373
1.326,-0.36
1.327,-0.093
1.327,-0.085
1.327,0.078
1.327,0.08
1.327,0.153
1.328,0.155
1.328,0.172
1.328,0.17
1.329,0.155
1.329,0.155
1.329,0.138
1.329,0.137
1.329,0.105
1.33,0.105
1.33,0.142
1.33,0.123
1.331,0.047
1.331,0.05
1.331,0.04
1.331,0.038
1.331,0.042
1.332,0.042
1.332,0.033
1.332,0.032
1.333,0.018
1.333,0.018
1.333,0.005
1.333,0.005
1.333,-0.003
1.334,-0.007
1.334,-0.002
1.334,-0.002
1.335,-0.005
1.335,-0.007
1.335,0
1.335,-0.003
1.335,0.027
1.336,0.03
1.336,0.113
1.336,0.117
1.337,0.198
1.337,0.202
1.337,0.308
1.337,0.315
1.337,0.473
1.338,0.535
1.338,0.377
1.338,0.358
1.339,-0.463
1.339,-0.498
1.339,-0.832
1.339,-0.55
1.339,0.535
1.34,0.7
1.34,-1.982
1.34,-2.585
1.341,-1.567
1.341,-1.492
1.341,0.037
1.341,0.06
1.341,0.358
1.342,0.367
1.342,0.412
1.342,0.398
1.343,0.307
1.343,0.302
1.343,0.227
1.343,0.223
1.343,0.17
1.344,0.168
1.344,0.128
1.344,0.127
1.345,0.103
1.345,0.103
1.345,0.085
1.345,0.087
1.345,0.073
1.346,0.075
1.346,0.063
1.346,0.065
1.347,0.06
1.347,0.058
1.347,0.063
1.347,0.068
1.347,0.062
1.348,0.063
1.348,0.048
1.348,0.047
1.349,0.023
1.349,0.022
1.349,-0.015
1.349,-0.017
1.349,-0.038
1.35,-0.038
1.35,-0.043
1.35,-0.04
1.351,-0.035
1.351,-0.04
1.351,-0.037
1.351,-0.042
1.351,-0.037
1.352,-0.04
1.352,-0.027
1.352,-0.027
1.353,-0.012
1.353,-0.013
1.353,-0.005
1.353,-0.005
1.353,-0.002
1.354,-0.003
1.354,0.002
1.354,-0.002
1.355,0.002
1.355,0.002
1.355,-0.002
1.355,-0.003
1.355,0.002
1.356,0.002
1.356,0.005
1.356,0.003
1.357,0.007
1.357,0.005
1.357,0.008
1.357,0.008
1.357,0.003
1.358,0.003
1.358,0
1.358,0
1.359,-0.005
1.359,-0.003
1.359,-0.008
1.359,-0.007
1.359,-0.012
1.36,-0.01
1.36,-0.017
1.36,-0.017
1.361,-0.012
1.361,-0.015
1.361,-0.022
1.361,-0.018
1.361,-0.025
1.362,-0.023
1.362,-0.028
1.362,-0.025
1.363,-0.032
1.363,-0.03
1.363,-0.027
1.363,-0.028
1.363,-0.022
1.364,-0.025
1.364,-0.022
1.364,-0.023
1.365,-0.017
1.365,-0.018
1.365,-0.01
1.365,-0.012
1.365,-0.005
1.366,-0.005
1.366,-0.002
1.366,0.002
1.367,-0.002
1.367,0
1.367,-0.005
1.367,-0.007
1.367,0
1.368,0.002
1.368,0.007
1.368,0.007
1.369,0.003
1.369,0.003
1.369,0.008
1.369,0.007
1.369,0.013
1.37,0.01
1.37,0.013
1.37,0.017
1.371,0.01
1.371,0.01
1.371,0.008
1.371,0.01
1.371,0.007
1.372,0.007
1.372,0.003
1.372,0.005
1.373,-0.002
1.373,0.002
1.373,-0.005
1.373,-0.005
1.373,-0.012
1.374,-0.008
1.374,-0.013
1.374,-0.01
1.375,-0.002
1.375,0
1.375,0.013
1.375,0.013
1.375,0.023
1.376,0.022
1.376,0.017
1.376,0.018
1.377,0.022
1.377,0.023
1.377,0.018
1.377,0.018
1.377,0.012
1.378,0.013
1.378,0.01
1.378,0.012
1.379,0.018
1.379,0.02
1.379,0.027
1.379,0.027
1.379,0.035
1.38,0.035
1.38,0.025
1.38,0.025
1.381,0.028
1.381,0.03
1.381,0.04
1.381,0.04
1.381,0.048
1.382,0.05
1.382,0.057
1.382,0.055
1.383,0.04
1.383,0.038
1.383,-0.002
1.383,-0.003
1.383,-0.04
1.384,-0.04
1.384,-0.05
1.384,-0.05
1.385,-0.045
1.385,-0.047
1.385,-0.053
1.385,-0.048
1.385,-0.053
1.386,-0.048
1.386,-0.058
1.386,-0.06
1.387,-0.067
1.387,-0.067
1.387,-0.06
1.387,-0.06
1.387,-0.042
1.388,-0.042
1.388,-0.027
1.388,-0.025
1.389,-0.015
1.389,-0.013
1.389,-0.007
1.389,-0.007
1.389,0.002
1.39,0.002
1.39,0.008
1.39,0.008
1.391,0.015
1.391,0.013
1.391,0.017
1.391,0.013
1.391,0.005
1.392,0.003
1.392,-0.01
1.392,-0.01
1.393,-0.023
1.393,-0.025
1.393,-0.04
1.393,-0.042
1.393,-0.047
1.394,-0.045
1.394,-0.022
1.394,-0.02
1.395,0.012
1.395,0.013
1.395,0.042
1.395,0.042
1.395,0.067
1.396,0.068
1.396,0.033
1.396,0.03
1.397,-0.035
1.397,-0.04
1.397,-0.138
1.397,-0.14
1.397,-0.167
1.398,-0.165
1.398,-0.14
1.398,-0.138
1.399,-0.098
1.399,-0.098
1.399,-0.072
1.399,-0.072
1.399,-0.058
1.4,-0.058
1.4,-0.042
1.4,-0.042
1.401,-0.027
1.401,-0.025
1.401,-0.015
1.401,-0.017
1.401,0.003
1.402,0.005
1.402,0.037
1.402,0.038
1.403,0.063
1.403,0.067
1.403,0.088
1.403,0.088
1.403,0.098
1.404,0.098
1.404,0.103
1.404,0.102
1.405,0.095
1.405,0.093
1.405,0.082
1.405,0.082
1.405,0.067
1.406,0.07
1.406,0.063
1.406,0.065
1.407,0.057
1.407,0.057
1.407,0.05
1.407,0.05
1.407,0.038
1.408,0.037
1.408,0.023
1.408,0.022
1.409,0.007
1.409,0.005
1.409,-0.007
1.409,-0.005
1.409,-0.012
1.41,-0.012
1.41,-0.003
1.41,-0.005
1.411,0.002
1.411,0
1.411,0.008
1.411,0.005
1.411,0
1.412,-0.002
1.412,-0.008
1.412,-0.01
1.413,-0.007
1.413,-0.008
1.413,-0.002
1.413,-0.002
1.413,0.01
1.414,0.01
1.414,0.017
1.414,0.013
1.415,0.018
1.415,0.012
1.415,0.02
1.415,0.017
1.415,0.005
1.416,0.005
1.416,-0.01
1.416,-0.007
1.417,-0.012
1.417,-0.005
1.417,-0.01
1.417,-0.008
1.417,-0.003
1.418,-0.005
1.418,-0.008
1.418,-0.008
1.419,-0.003
1.419,-0.008
1.419,-0.003
1.419,-0.007
1.419,-0.003
1.42,-0.002
1.42,0.008
1.42,0.01
1.421,0.025
1.421,0.027
1.421,0.022
1.421,0.022
1.421,0.013
1.422,0.015
1.422,0.01
1.422,0.012
1.423,0.025
1.423,0.027
1.423,0.067
1.423,0.072
1.423,0.152
1.424,0.155
1.424,0.3
1.424,0.347
1.425,-0.277
1.425,-0.295
1.425,-0.423
1.425,-0.427
1.425,-0.23
1.426,-0.218
1.426,-0.095
1.426,-0.088
1.427,0.07
1.427,0.077
1.427,0.183
1.427,0.188
1.427,0.268
1.428,0.27
1.428,0.333
1.428,0.348
1.429,0.275
1.429,0.26
1.429,-0.298
1.429,-0.323
1.429,-0.57
1.43,-0.567
1.43,-0.36
1.43,-0.348
1.431,-0.075
1.431,-0.067
1.431,0.098
1.431,0.102
1.431,0.168
1.432,0.175
1.432,0.167
1.432,0.167
1.433,0.142
1.433,0.133
1.433,0.148
1.433,0.15
1.433,0.197
1.434,0.198
1.434,0.315
1.434,0.317
1.435,0.365
1.435,0.372
1.435,0.537
1.435,0.572
1.435,0.348
1.436,0.32
1.436,-0.513
1.436,-0.775
1.437,-0.44
1.437,-0.385
1.437,0.665
1.437,0.795
1.438,-2.395
1.438,-2.607
1.438,-1.398
1.438,-1.318
1.438,0.122
1.439,0.137
1.439,0.33
1.439,0.338
1.44,0.427
1.44,0.427
1.44,0.363
1.44,0.358
1.44,0.272
1.441,0.268
1.441,0.19
1.441,0.185
1.442,0.135
1.442,0.133
1.442,0.1
1.442,0.1
1.442,0.087
1.443,0.085
1.443,0.067
1.443,0.065
1.444,0.038
1.444,0.038
1.444,0.025
1.444,0.028
1.444,0.022
1.445,0.022
1.445,0.01
1.445,0.008
1.446,-0.023
1.446,-0.025
1.446,-0.062
1.446,-0.062
1.446,-0.095
1.447,-0.1
1.447,-0.093
1.447,-0.093
1.448,-0.067
1.448,-0.067
1.448,-0.038
1.448,-0.038
1.448,-0.02
1.449,-0.022
1.449,-0.01
1.449,-0.01
1.45,0.002
1.45,0.003
1.45,0.018
1.45,0.017
1.45,0.028
1.451,0.027
1.451,0.033
1.451,0.032
1.452,0.025
1.452,0.023
1.452,0.027
1.452,0.025
1.452,0.02
1.453,0.022
1.453,0.018
1.453,0.022
1.454,0.018
1.454,0.02
1.454,0.013
1.454,0.018
1.454,0.013
1.455,0.017
1.455,0.008
1.455,0.01
1.456,-0.005
1.456,-0.005
1.456,-0.01
1.456,-0.008
1.456,-0.013
1.457,-0.013
1.457,-0.008
1.457,-0.008
1.458,-0.013
1.458,-0.012
1.458,-0.007
1.458,-0.01
1.458,-0.002
1.459,-0.005
1.459,0
1.459,0
1.46,-0.005
1.46,-0.003
1.46,-0.012
1.46,-0.012
1.46,-0.02
1.461,-0.02
1.461,-0.037
1.461,-0.035
1.462,-0.043
1.462,-0.042
1.462,-0.03
1.462,-0.03
1.462,-0.017
1.463,-0.017
1.463,0
1.463,0.002
1.464,0.013
1.464,0.013
1.464,0.022
1.464,0.022
1.464,0.025
1.465,0.025
1.465,0.02
1.465,0.018
1.466,0.022
1.466,0.022
1.466,0.017
1.466,0.018
1.466,0.015
1.467,0.018
1.467,0.008
1.467,0.01
1.468,0.002
1.468,0.002
1.468,-0.003
1.468,-0.002
1.468,-0.005
1.469,-0.003
1.469,-0.013
1.469,-0.012
1.47,-0.017
1.47,-0.017
1.47,-0.015
1.47,-0.017
1.47,-0.013
1.471,-0.015
1.471,-0.012
1.471,-0.013
1.472,-0.017
1.472,-0.015
1.472,-0.012
1.472,-0.01
1.472,-0.015
1.473,-0.008
1.473,-0.017
1.473,-0.017
1.474,-0.023
1.474,-0.022
1.474,-0.025
1.474,-0.023
1.474,-0.017
1.475,-0.018
1.475,-0.012
1.475,-0.015
1.476,-0.012
1.476,-0.015
1.476,-0.012
1.476,-0.01
1.476,-0.013
1.477,-0.012
1.477,-0.005
1.477,-0.005
1.478,-0.01
1.478,-0.008
1.478,-0.013
1.478,-0.015
1.478,-0.012
1.479,-0.015
1.479,-0.007
1.479,-0.007
1.48,-0.002
1.48,-0.005
1.48,0.002
1.48,0.002
1.48,0.007
1.481,0.007
1.481,0.012
1.481,0.013
1.482,0.023
1.482,0.023
1.482,0.037
1.482,0.035
1.482,0.04
1.483,0.042
1.483,0.035
1.483,0.038
1.484,0.032
1.484,0.033
1.484,0.04
1.484,0.04
1.484,0.043
1.485,0.043
1.485,0.05
1.485,0.048
1.486,0.052
1.486,0.052
1.486,0.047
1.486,0.048
1.486,0.038
1.487,0.038
1.487,0.017
1.487,0.015
1.488,-0.01
1.488,-0.01
1.488,-0.028
1.488,-0.027
1.488,-0.032
1.489,-0.035
1.489,-0.028
1.489,-0.03
1.49,-0.02
1.49,-0.02
1.49,-0.013
1.49,-0.015
1.49,-0.025
1.491,-0.025
1.491,-0.03
1.491,-0.032
1.492,-0.027
1.492,-0.03
1.492,-0.022
1.492,-0.023
1.492,-0.015
1.493,-0.013
1.493,-0.002
1.493,-0.002
1.494,0.01
1.494,0.01
1.494,0.017
1.494,0.01
1.494,0.013
1.495,0.012
1.495,0.015
1.495,0.017
1.496,0.013
1.496,0.017
1.496,0.012
1.496,0.013
1.496,0.017
1.497,0.013
1.497,0.015
1.497,0.015
1.498,0.005
1.498,0.003
1.498,-0.015
1.498,-0.017
1.498,-0.023
1.499,-0.025
1.499,-0.018
1.499,-0.022
1.5,-0.013
1.5,-0.015
1.5,-0.012
1.5,-0.012
1.5,-0.017
1.501,-0.017
1.501,-0.028
1.501,0.1
1.502,-0.027
1.502,-0.032
1.502,-0.03
1.502,-0.023
1.502,-0.023
1.503,-0.027
1.503,-0.025
1.503,-0.017
1.504,-0.017
1.504,-0.01
1.504,-0.012
1.504,-0.002
1.504,-0.002
1.505,0.003
1.505,0
1.505,0.005
1.506,0.005
1.506,0.002
1.506,0.003
1.506,0.01
1.506,0.008
1.507,0.003
1.507,0.005
1.507,0
1.508,0.002
1.508,-0.002
1.508,-0.002
1.508,-0.008
1.508,-0.008
1.509,-0.02
1.509,-0.02
1.509,-0.017
1.51,-0.02
1.51,-0.015
1.51,-0.017
1.51,-0.007
1.51,-0.008
1.511,0
1.511,-0.002
1.511,0.003
1.512,0.002
1.512,0.008
1.512,0.005
1.512,0.017
1.512,0.017
1.513,0.03
1.513,0.03
1.513,0.035
1.514,0.035
1.514,0.03
1.514,0.03
1.514,0.022
1.514,0.022
1.515,0.012
1.515,0.012
1.515,-0.003
1.516,-0.005
1.516,-0.015
1.516,-0.015
1.516,-0.025
1.516,-0.025
1.517,-0.033
1.517,-0.03
1.517,-0.045
1.518,-0.045
1.518,-0.057
1.518,-0.058
1.518,-0.068
1.518,-0.067
1.519,-0.05
1.519,-0.05
1.519,-0.037
1.52,-0.037
1.52,-0.027
1.52,-0.028
1.52,-0.013
1.52,-0.015
1.521,-0.005
1.521,-0.005
1.521,0.002
1.522,0.002
1.522,0.013
1.522,0.01
1.522,0.017
1.522,0.015
1.523,0.027
1.523,0.025
1.523,0.03
1.524,0.028
1.524,0.035
1.524,0.033
1.524,0.025
1.524,0.027
1.525,0.022
1.525,0.025
1.525,0.022
1.526,0.023
1.526,0.017
1.526,0.017
1.526,0.01
1.526,0.008
1.527,0.003
1.527,0.005
1.527,0
1.528,-0.002
1.528,0.005
1.528,0.002
1.528,0.007
1.528,0.005
1.529,0.012
1.529,0.01
1.529,0.015
1.53,0.013
1.53,0.015
1.53,0.013
1.53,0.03
1.53,0.032
1.531,0.05
1.531,0.05
1.531,0.06
1.532,0.063
1.532,0.057
1.532,0.057
1.532,0.01
1.532,0.007
1.533,-0.073
1.533,-0.077
1.533,-0.175
1.534,-0.178
1.534,-0.212
1.534,-0.212
1.534,-0.168
1.534,-0.165
1.535,-0.09
1.535,-0.087
1.535,-0.02
1.536,-0.017
1.536,0.027
1.536,0.028
1.536,0.053
1.536,0.052
1.537,0.062
1.537,0.062
1.537,0.068
1.538,0.07
1.538,0.12
1.538,0.123
1.538,0.218
1.538,0.222
1.539,0.335
1.539,0.338
1.539,0.463
1.54,0.47
1.54,0.647
1.54,0.663
1.54,0.37
1.54,0.342
1.541,-0.528
1.541,-0.698
1.541,-0.113
1.542,-0.018
1.542,0.855
1.542,0.82
1.542,-2.22
1.542,-2.237
1.543,-1.33
1.543,-1.26
1.543,-0.138
1.544,-0.157
1.544,0.09
1.544,0.112
1.544,0.362
1.544,0.367
1.545,0.44
1.545,0.44
1.545,0.458
1.546,0.46
1.546,0.415
1.546,0.422
1.546,0.412
1.546,0.415
1.547,0.268
1.547,0.248
1.547,-0.29
1.548,-0.315
1.548,-0.585
1.548,-0.58
1.548,-0.378
1.548,-0.367
1.549,-0.117
1.549,-0.108
1.549,0.038
1.55,0.042
1.55,0.1
1.55,0.103
1.55,0.097
1.55,0.098
1.551,0.085
1.551,0.085
1.551,0.075
1.552,0.078
1.552,0.073
1.552,0.073
1.552,0.067
1.552,0.065
1.553,0.057
1.553,0.055
1.553,0.048
1.554,0.05
1.554,0.057
1.554,0.055
1.554,0.065
1.554,0.065
1.555,0.072
1.555,0.07
1.555,0.06
1.556,0.06
1.556,0.03
1.556,0.028
1.556,-0.018
1.556,-0.018
1.557,-0.038
1.557,-0.038
1.557,-0.04
1.558,-0.035
1.558,-0.043
1.558,-0.043
1.558,-0.048
1.558,-0.047
1.559,-0.052
1.559,-0.05
1.559,-0.055
1.56,-0.052
1.56,-0.045
1.56,-0.047
1.56,-0.037
1.56,-0.038
1.561,-0.035
1.561,-0.037
1.561,-0.027
1.562,-0.027
1.562,-0.02
1.562,-0.022
1.562,-0.017
1.562,-0.017
1.563,-0.013
1.563,-0.017
1.563,-0.01
1.563,-0.012
1.564,-0.008
1.564,-0.01
1.564,-0.003
1.565,-0.005
1.565,0.002
1.565,0
1.565,0.005
1.565,0.005
1.566,0.012
1.566,0.012
1.566,0.005
1.567,0.005
1.567,0.008
1.567,0.007
1.567,0.01
1.567,0.01
1.568,0.005
1.568,0.005
1.568,0.013
1.569,0.015
1.569,0.032
1.569,0.032
1.569,0.037
1.569,0.035
1.57,0.04
1.57,0.037
1.57,0.023
1.571,0.023
1.571,0.012
1.571,0.012
1.571,0.005
1.571,0.007
1.572,0.012
1.572,0.013
1.572,0.008
1.573,0.012
1.573,0.007
1.573,0.007
1.573,0
1.573,0.002
1.574,-0.003
1.574,-0.002
1.574,-0.007
1.575,-0.002
1.575,-0.005
1.575,-0.005
1.575,-0.002
1.575,-0.005
1.576,-0.002
1.576,0
1.576,-0.007
1.577,-0.003
1.577,-0.008
1.577,-0.007
1.577,-0.015
1.577,-0.015
1.578,-0.025
1.578,-0.025
1.578,-0.032
1.579,-0.03
1.579,-0.02
1.579,-0.02
1.579,-0.008
1.579,-0.007
1.58,-0.003
1.58,-0.007
1.58,0
1.581,-0.002
1.581,0.007
1.581,0.008
1.581,0.017
1.581,0.018
1.582,0.013
1.582,0.02
1.582,0.015
1.583,0.018
1.583,0.007
1.583,0.008
1.583,0
1.583,0
1.584,-0.002
1.584,-0.007
1.584,0.002
1.585,-0.002
1.585,0.003
1.585,0.003
1.585,0.007
1.585,0.008
1.586,0.003
1.586,0.008
1.586,0.002
1.587,0.003
1.587,-0.003
1.587,-0.005
1.587,-0.002
1.587,-0.002
1.588,-0.007
1.588,-0.005
1.588,-0.002
1.589,-0.003
1.589,0
1.589,-0.005
1.589,-0.002
1.589,-0.002
1.59,-0.005
1.59,-0.005
1.59,0
1.591,0
1.591,-0.002
1.591,0
1.591,-0.003
1.591,-0.002
1.592,-0.008
1.592,-0.008
1.592,-0.015
1.593,-0.012
1.593,-0.022
1.593,-0.022
1.593,-0.028
1.593,-0.028
1.594,-0.033
1.594,-0.033
1.594,-0.03
1.595,-0.028
1.595,-0.033
1.595,-0.028
1.595,-0.017
1.595,-0.017
1.596,-0.008
1.596,-0.008
1.596,0.003
1.597,0.002
1.597,0.007
1.597,0.007
1.597,0.002
1.597,0.002
1.598,0.005
1.598,0.003
1.598,-0.002
1.599,-0.003
1.599,0.002
1.599,-0.002
1.599,0.007
1.599,0.005
1.6,0.015
1.6,0.013
1.6,0.023
1.601,0.025
1.601,0.037
1.601,0.038
1.601,0.043
1.601,0.04
1.602,0.033
1.602,0.033
1.602,0.042
1.603,0.043
1.603,0.052
1.603,0.052
1.603,0.062
1.603,0.058
1.604,0.038
1.604,0.037
1.604,0.02
1.605,0.018
1.605,0.008
1.605,0.01
1.605,0.003
1.605,0.003
1.606,0.012
1.606,0.01
1.606,0.018
1.607,0.018
1.607,0.022
1.607,0.017
1.607,0.007
1.607,0.003
1.608,0.01
1.608,0.008
1.608,0.012
1.609,0.008
1.609,-0.008
1.609,-0.01
1.609,-0.033
1.609,-0.032
1.61,-0.038
1.61,-0.033
1.61,-0.047
1.611,-0.047
1.611,-0.063
1.611,-0.063
1.611,-0.067
1.611,-0.063
1.612,-0.055
1.612,-0.055
1.612,-0.047
1.613,-0.047
1.613,-0.035
1.613,-0.037
1.613,-0.022
1.613,-0.02
1.614,-0.002
1.614,-0.002
1.614,0.017
1.615,0.018
1.615,0.023
1.615,0.023
1.615,0.02
1.615,0.022
1.616,0.01
1.616,0.012
1.616,0
1.617,0
1.617,-0.005
1.617,-0.003
1.617,-0.015
1.617,-0.013
1.618,-0.025
1.618,-0.025
1.618,-0.027
1.619,-0.027
1.619,-0.018
1.619,-0.02
1.619,-0.015
1.619,-0.015
1.62,-0.01
1.62,-0.01
1.62,-0.015
1.621,-0.012
1.621,-0.015
1.621,-0.013
1.621,-0.018
1.621,-0.015
1.622,-0.022
1.622,-0.02
1.622,-0.017
1.623,-0.012
1.623,-0.02
1.623,-0.017
1.623,-0.02
1.623,-0.018
1.624,-0.025
1.624,-0.022
1.624,-0.027
1.625,-0.025
1.625,-0.022
1.625,-0.023
1.625,-0.017
1.625,-0.017
1.626,-0.013
1.626,-0.013
1.626,-0.007
1.627,-0.005
1.627,0
1.627,0
1.627,0.01
1.627,0.01
1.628,0.017
1.628,0.018
1.628,0.028
1.629,0.027
1.629,0.085
1.629,0.088
1.629,0.182
1.629,0.185
1.63,0.283
1.63,0.287
1.63,0.4
1.631,0.405
1.631,0.565
1.631,0.583
1.631,0.267
1.631,0.233
1.632,-0.678
1.632,-0.835
1.632,-0.102
1.633,-0.333
1.633,0.743
1.633,0.733
1.633,-2.558
1.633,-2.512
1.634,-0.977
1.634,-0.89
1.634,0.22
1.635,0.225
1.635,0.385
1.635,0.367
1.635,0.403
1.635,0.402
1.636,0.337
1.636,0.333
1.636,0.263
1.637,0.26
1.637,0.148
1.637,0.147
1.637,0.088
1.637,0.087
1.638,0.067
1.638,0.067
1.638,0.055
1.639,0.055
1.639,0.035
1.639,0.033
1.639,0.007
1.639,0.007
1.64,-0.025
1.64,-0.027
1.64,-0.05
1.641,-0.052
1.641,-0.065
1.641,-0.063
1.641,-0.05
1.641,-0.052
1.642,-0.025
1.642,-0.022
1.642,0.02
1.643,0.022
1.643,0.072
1.643,0.073
1.643,0.1
1.643,0.102
1.644,0.078
1.644,0.077
1.644,0.018
1.645,0.015
1.645,-0.073
1.645,-0.075
1.645,-0.097
1.645,-0.092
1.646,-0.005
1.646,0
1.646,0.178
1.647,0.185
1.647,0.37
1.647,0.243
1.647,-0.312
1.647,-0.313
1.648,-0.233
1.648,-0.225
1.648,-0.05
1.649,-0.048
1.649,0.048
1.649,0.052
1.649,0.17
1.649,0.173
1.65,0.273
1.65,0.277
1.65,0.338
1.651,0.34
1.651,0.372
1.651,0.362
1.651,0.068
1.651,0.05
1.652,-0.527
1.652,-0.56
1.652,-0.503
1.653,-0.497
1.653,-0.212
1.653,-0.202
1.653,0.027
1.653,0.035
1.654,0.147
1.654,0.15
1.654,0.178
1.655,0.178
1.655,0.163
1.655,0.162
1.655,0.133
1.655,0.133
1.656,0.103
1.656,0.102
1.656,0.077
1.657,0.113
1.657,0.077
1.657,0.072
1.657,0.022
1.657,0.02
1.658,0.012
1.658,0.012
1.658,0.015
1.659,0.012
1.659,0.015
1.659,0.012
1.659,0.003
1.659,0.007
1.66,-0.002
1.66,-0.002
1.66,-0.005
1.661,-0.005
1.661,-0.012
1.661,-0.008
1.661,-0.013
1.661,-0.013
1.662,-0.008
1.662,-0.01
1.662,-0.017
1.663,-0.015
1.663,-0.012
1.663,-0.015
1.663,-0.012
1.663,-0.013
1.664,-0.01
1.664,-0.008
1.664,0.002
1.665,-0.002
1.665,0.007
1.665,0.007
1.665,0.01
1.665,0.007
1.666,0.01
1.666,0.005
1.666,0.01
1.667,0.012
1.667,0.01
1.667,0.008
1.667,0.01
1.667,0.012
1.668,0.005
1.668,0.007
1.668,0.003
1.669,0.003
1.669,-0.002
1.669,-0.002
1.669,-0.01
1.669,-0.012
1.67,-0.018
1.67,-0.018
1.67,-0.022
1.671,-0.02
1.671,-0.025
1.671,-0.025
1.671,-0.032
1.671,-0.032
1.672,-0.042
1.672,-0.04
1.672,-0.05
1.673,-0.05
1.673,-0.058
1.673,-0.058
1.673,-0.063
1.673,-0.062
1.674,-0.052
1.674,-0.053
1.674,-0.04
1.675,-0.042
1.675,-0.03
1.675,-0.03
1.675,-0.023
1.675,-0.023
1.676,-0.018
1.676,-0.02
1.676,-0.017
1.677,-0.022
1.677,-0.017
1.677,-0.02
1.677,-0.015
1.677,-0.02
1.678,-0.012
1.678,-0.012
1.678,-0.015
1.679,-0.015
1.679,-0.023
1.679,-0.023
1.679,-0.035
1.679,-0.033
1.68,-0.038
1.68,-0.037
1.68,-0.032
1.681,-0.033
1.681,-0.028
1.681,-0.03
1.681,-0.035
1.681,-0.035
1.682,-0.032
1.682,-0.033
1.682,-0.027
1.683,-0.028
1.683,-0.01
1.683,-0.01
1.683,0
1.683,0
1.684,0.01
1.684,0.01
1.684,0.017
1.685,0.017
1.685,0.025
1.685,0.023
1.685,0.033
1.685,0.033
1.686,0.043
1.686,0.043
1.686,0.05
1.687,0.05
1.687,0.045
1.687,0.045
1.687,0.04
1.688,0.038
1.688,0.035
1.688,0.035
1.688,0.028
1.688,0.03
1.689,0.017
1.689,0.017
1.689,0.007
1.69,0.007
1.69,0.003
1.69,0.003
1.69,0.007
1.69,0.005
1.691,0.008
1.691,0.007
1.691,0.003
1.692,0.007
1.692,0.003
1.692,0.005
1.692,0.002
1.692,0.005
1.693,-0.007
1.693,-0.008
1.693,-0.013
1.694,-0.01
1.694,-0.007
1.694,-0.012
1.694,-0.008
1.694,-0.008
1.695,-0.013
1.695,-0.013
1.695,-0.022
1.696,-0.022
1.696,-0.027
1.696,-0.023
1.696,-0.008
1.696,-0.01
1.697,0.007
1.697,0.007
1.697,0.013
1.698,0.008
1.698,0.013
1.698,0.008
1.698,0.012
1.698,0.01
1.699,0.015
1.699,0.015
1.699,0.01
1.7,0.013
1.7,0.008
1.7,0.01
1.7,0.005
1.7,0.002
1.701,0.007
1.701,0.003
1.701,0.007
1.702,0.005
1.702,0.007
1.702,0.007
1.702,0.002
1.702,0
1.703,0.005
1.703,0.003
1.703,0
1.704,-0.002
1.704,-0.007
1.704,-0.008
1.704,-0.003
1.704,-0.007
1.705,-0.003
1.705,-0.005
1.705,0
1.706,-0.002
1.706,0.005
1.706,0.003
1.706,0.008
1.706,0.008
1.707,0.017
1.707,0.017
1.707,0.022
1.708,0.023
1.708,0.03
1.708,0.032
1.708,0.038
1.708,0.04
1.709,0.045
1.709,0.045
1.709,0.048
1.71,0.047
1.71,0.052
1.71,0.052
1.71,0.055
1.71,0.057
1.711,0.047
1.711,0.047
1.711,0.03
1.712,0.03
1.712,0.013
1.712,0.012
1.712,-0.007
1.712,-0.008
1.713,-0.027
1.713,-0.028
1.713,-0.033
1.714,-0.028
1.714,-0.022
1.714,-0.022
1.714,-0.025
1.714,-0.027
1.715,-0.038
1.715,-0.035
1.715,-0.038
1.716,-0.037
1.716,-0.028
1.716,-0.028
1.716,-0.025
1.716,-0.03
1.717,-0.027
1.717,-0.03
1.717,-0.037
1.718,-0.037
1.718,-0.05
1.718,-0.047
1.718,-0.057
1.718,-0.058
1.719,-0.053
1.719,-0.053
1.719,-0.038
1.72,-0.037
1.72,-0.018
1.72,-0.018
1.72,-0.002
1.72,0.002
1.721,0.012
1.721,0.01
1.721,0.022
1.722,0.022
1.722,0.018
1.722,0.017
1.722,0.022
1.722,0.018
1.723,0.013
1.723,0.015
1.723,0.007
1.724,0.007
1.724,0.038
1.724,0.043
1.724,0.12
1.724,0.125
1.725,0.203
1.725,0.208
1.725,0.325
1.726,0.332
1.726,0.502
1.726,0.545
1.726,0.352
1.726,0.327
1.727,-0.532
1.727,-0.827
1.727,-0.468
1.728,-0.53
1.728,0.617
1.728,0.72
1.728,-1.997
1.728,-2.572
1.729,-1.465
1.729,-1.38
1.729,0.152
1.73,-0.013
1.73,0.262
1.73,0.278
1.73,0.415
1.73,0.413
1.731,0.333
1.731,0.33
1.731,0.252
1.732,0.25
1.732,0.145
1.732,0.142
1.732,0.092
1.732,0.09
1.733,0.063
1.733,0.065
1.733,0.052
1.734,0.052
1.734,0.042
1.734,0.04
1.734,0.027
1.734,0.027
1.735,0.017
1.735,0.018
1.735,0.01
1.736,0.015
1.736,0.01
1.736,0.01
1.736,0.008
1.736,0.008
1.737,0.01
1.737,0.007
1.737,0.01
1.738,0.007
1.738,0.013
1.738,0.012
1.738,0.017
1.738,0.017
1.739,0.022
1.739,0.02
1.739,0.022
1.74,0.018
1.74,0.022
1.74,0.02
1.74,0.013
1.74,0.017
1.741,0.013
1.741,0.013
1.741,0.017
1.742,0.015
1.742,0.022
1.742,0.02
1.742,0.028
1.742,0.027
1.743,0.032
1.743,0.032
1.743,0.027
1.744,0.025
1.744,0.013
1.744,0.012
1.744,0.002
1.744,0.002
1.745,-0.022
1.745,-0.022
1.745,-0.05
1.746,-0.053
1.746,-0.06
1.746,-0.062
1.746,-0.05
1.746,-0.048
1.747,-0.033
1.747,-0.033
1.747,-0.018
1.748,-0.02
1.748,-0.005
1.748,-0.003
1.748,0.008
1.748,0.007
1.749,0.015
1.749,0.012
1.749,0.015
1.75,0.015
1.75,0.012
1.75,0.012
1.75,0.003
1.75,0.003
1.751,-0.005
1.751,-0.002
1.751,-0.007
1.752,0.1
1.752,-0.005
1.752,0.002
1.752,0
1.752,0.003
1.753,0.003
1.753,0.002
1.753,0.003
1.754,0
1.754,-0.002
1.754,0.005
1.754,0.002
1.754,0.01
1.755,0.008
1.755,0.022
1.755,0.022
1.756,0.037
1.756,0.035
1.756,0.05
1.756,0.05
1.756,0.062
1.757,0.062
1.757,0.085
1.757,0.087
1.758,0.108
1.758,0.11
1.758,0.153
1.758,0.157
1.758,0.235
1.759,0.24
1.759,0.37
1.759,0.4
1.76,-0.273
1.76,-0.288
1.76,-0.393
1.76,-0.392
1.76,-0.2
1.761,-0.193
1.761,-0.098
1.761,-0.093
1.762,0.043
1.762,0.047
1.762,0.133
1.762,0.138
1.762,0.198
1.763,0.2
1.763,0.245
1.763,0.252
1.764,0.133
1.764,0.117
1.764,-0.443
1.764,-0.467
1.764,-0.682
1.765,-0.672
1.765,-0.447
1.765,-0.435
1.766,-0.163
1.766,-0.153
1.766,0.018
1.766,0.023
1.766,0.102
1.767,0.103
1.767,0.127
1.767,0.127
1.768,0.12
1.768,0.12
1.768,0.11
1.768,0.108
1.768,0.078
1.769,0.077
1.769,0.115
1.769,0.102
1.77,0.037
1.77,0.04
1.77,0.048
1.77,0.05
1.77,0.06
1.771,0.065
1.771,0.06
1.771,0.062
1.772,0.05
1.772,0.05
1.772,0.038
1.772,0.04
1.772,0.025
1.773,0.023
1.773,0.01
1.773,0.01
1.774,-0.002
1.774,0
1.774,-0.005
1.774,-0.003
1.774,0
1.775,-0.002
1.775,0.007
1.775,0.008
1.776,0.02
1.776,0.018
1.776,0.027
1.776,0.027
1.776,0.032
1.777,0.032
1.777,0.04
1.777,0.038
1.778,0.045
1.778,0.043
1.778,0.05
1.778,0.047
1.778,0.052
1.779,0.048
1.779,0.043
1.779,0.043
1.78,0.035
1.78,0.035
1.78,0.027
1.78,0.027
1.78,0.017
1.781,0.017
1.781,0.008
1.781,0.007
1.782,-0.005
1.782,-0.003
1.782,-0.015
1.782,-0.013
1.782,-0.023
1.783,-0.025
1.783,-0.032
1.783,-0.032
1.784,-0.038
1.784,-0.037
1.784,-0.022
1.784,-0.022
1.784,0.005
1.785,0.007
1.785,0.023
1.785,0.023
1.786,0.033
1.786,0.035
1.786,0.007
1.786,0.005
1.786,-0.058
1.787,-0.062
1.787,-0.155
1.787,-0.16
1.788,-0.202
1.788,-0.2
1.788,-0.168
1.788,-0.165
1.788,-0.097
1.789,-0.093
1.789,-0.028
1.789,-0.027
1.79,0.018
1.79,0.02
1.79,0.035
1.79,0.035
1.79,0.048
1.791,0.048
1.791,0.07
1.791,0.072
1.792,0.095
1.792,0.095
1.792,0.102
1.792,0.102
1.792,0.098
1.793,0.098
1.793,0.1
1.793,0.098
1.794,0.09
1.794,0.092
1.794,0.082
1.794,0.083
1.794,0.072
1.795,0.072
1.795,0.062
1.795,0.062
1.796,0.05
1.796,0.05
1.796,0.043
1.796,0.043
1.796,0.033
1.797,0.033
1.797,0.027
1.797,0.027
1.798,0.02
1.798,0.018
1.798,0.008
1.798,0.008
1.798,-0.005
1.799,-0.005
1.799,-0.022
1.799,-0.022
1.8,-0.03
1.8,-0.028
1.8,-0.033
1.8,-0.03
1.8,-0.022
1.801,-0.025
1.801,-0.012
1.801,-0.01
1.802,0.007
1.802,0.008
1.802,0.017
1.802,0.017
1.802,0.028
1.803,0.028
1.803,0.035
1.803,0.038
1.804,0.032
1.804,0.033
1.804,0.025
1.804,0.025
1.804,0.015
1.805,0.017
1.805,0.01
1.805,0.012
1.806,0.007
1.806,0.008
1.806,0.003
1.806,0.005
1.806,0.01
1.807,0.008
1.807,0.003
1.807,0.007
1.808,0.002
1.808,0.007
1.808,0.002
1.808,0.003
1.808,-0.002
1.809,0.002
1.809,-0.007
1.809,-0.003
1.81,-0.01
1.81,-0.007
1.81,-0.017
1.81,-0.017
1.81,-0.027
1.811,-0.027
1.811,-0.03
1.811,-0.027
1.812,-0.033
1.812,-0.03
1.812,-0.025
1.812,-0.023
1.812,-0.017
1.813,-0.018
1.813,-0.007
1.813,-0.007
1.813,0.002
1.814,0
1.814,0.007
1.814,0.003
1.815,0.007
1.815,0.007
1.815,0.012
1.815,0.012
1.815,0.007
1.816,0.007
1.816,0.002
1.816,0.003
1.817,0.008
1.817,0.005
1.817,0.012
1.817,0.01
1.817,0.017
1.818,0.013
1.818,0.02
1.818,0.018
1.819,0.027
1.819,0.023
1.819,0.03
1.819,0.027
1.819,0.033
1.82,0.033
1.82,0.022
1.82,0.02
1.821,-0.007
1.821,-0.008
1.821,-0.035
1.821,-0.037
1.821,-0.048
1.822,-0.047
1.822,-0.05
1.822,-0.048
1.823,-0.037
1.823,-0.035
1.823,-0.025
1.823,-0.025
1.823,-0.032
1.824,-0.032
1.824,-0.043
1.824,-0.045
1.825,-0.035
1.825,-0.035
1.825,0.04
1.825,0.045
1.825,0.132
1.826,0.137
1.826,0.238
1.826,0.243
1.827,0.38
1.827,0.387
1.827,0.565
1.827,0.565
1.827,0.137
1.828,0.1
1.828,-0.77
1.828,-0.83
1.829,0.072
1.829,-0.208
1.829,0.735
1.829,0.642
1.829,-2.43
1.83,-2.243
1.83,-0.708
1.83,-0.625
1.831,0.132
1.831,-0.007
1.831,0.393
1.831,0.4
1.831,0.438
1.832,0.413
1.832,0.317
1.832,0.313
1.833,0.237
1.833,0.233
1.833,0.133
1.833,0.132
1.833,0.083
1.834,0.082
1.834,0.055
1.834,0.055
1.835,0.04
1.835,0.038
1.835,0.023
1.835,0.022
1.835,0.015
1.836,0.01
1.836,0.017
1.836,0.013
1.837,0.02
1.837,0.018
1.837,0.01
1.837,0.01
1.837,0.013
1.838,0.012
1.838,0.022
1.838,0.02
1.839,0.027
1.839,0.027
1.839,0.018
1.839,0.02
1.839,0.013
1.84,0.015
1.84,0.012
1.84,0.013
1.841,0.02
1.841,0.022
1.841,0.03
1.841,0.03
1.841,0.047
1.842,0.045
1.842,0.057
1.842,0.053
1.843,0.065
1.843,0.067
1.843,0.055
1.843,0.055
1.843,0.028
1.844,0.028
1.844,0
1.844,-0.002
1.845,-0.045
1.845,-0.045
1.845,-0.083
1.845,-0.085
1.845,-0.095
1.846,-0.093
1.846,-0.082
1.846,-0.083
1.847,-0.08
1.847,-0.083
1.847,-0.09
1.847,-0.093
1.847,-0.087
1.848,-0.09
1.848,-0.082
1.848,-0.083
1.849,-0.077
1.849,-0.078
1.849,-0.063
1.849,-0.063
1.849,-0.045
1.85,-0.045
1.85,-0.023
1.85,-0.023
1.851,-0.002
1.851,0
1.851,0.01
1.851,0.01
1.851,0.017
1.852,0.017
1.852,0.013
1.852,0.013
1.853,0.017
1.853,0.013
1.853,0.01
1.853,0.012
1.853,0.005
1.854,0.005
1.854,-0.002
1.854,0
1.855,-0.007
1.855,-0.003
1.855,-0.008
1.855,-0.01
1.855,-0.005
1.856,-0.008
1.856,-0.01
1.856,-0.008
1.857,-0.012
1.857,-0.013
1.857,-0.01
1.857,-0.013
1.857,-0.008
1.858,-0.008
1.858,0
1.858,-0.002
1.859,0.002
1.859,0
1.859,-0.003
1.859,-0.005
1.859,-0.002
1.86,-0.005
1.86,0
1.86,-0.002
1.861,0.003
1.861,0
1.861,0.01
1.861,0.01
1.861,0.017
1.862,0.017
1.862,0.023
1.862,0.022
1.863,0.03
1.863,0.03
1.863,0.042
1.863,0.04
1.863,0.047
1.864,0.048
1.864,0.052
1.864,0.053
1.865,0.067
1.865,0.067
1.865,0.083
1.865,0.085
1.865,0.108
1.866,0.11
1.866,0.168
1.866,0.173
1.867,0.27
1.867,0.39
1.867,0.2
1.867,0.123
1.867,-0.375
1.868,-0.388
1.868,-0.295
1.868,-0.287
1.869,-0.102
1.869,-0.097
1.869,0.048
1.869,0.057
1.869,0.172
1.87,0.175
1.87,0.255
1.87,0.26
1.871,0.312
1.871,0.313
1.871,0.338
1.871,0.312
1.871,-0.063
1.872,-0.093
1.872,-0.59
1.872,-0.612
1.873,-0.515
1.873,-0.503
1.873,-0.218
1.873,-0.207
1.873,0.007
1.874,0.013
1.874,0.117
1.874,0.12
1.875,0.147
1.875,0.147
1.875,0.132
1.875,0.132
1.875,0.113
1.876,0.113
1.876,0.08
1.876,0.058
1.877,0.085
1.877,0.088
1.877,0.005
1.877,0
1.877,-0.012
1.878,-0.015
1.878,-0.005
1.878,-0.008
1.879,-0.003
1.879,-0.005
1.879,-0.012
1.879,-0.013
1.879,-0.01
1.88,-0.01
1.88,-0.005
1.88,-0.007
1.881,0
1.881,-0.002
1.881,0.007
1.881,0.003
1.881,0.008
1.882,0.005
1.882,0.012
1.882,0.01
1.883,0.015
1.883,0.012
1.883,0.015
1.883,0.017
1.883,0.01
1.884,0.01
1.884,-0.005
1.884,-0.007
1.885,-0.022
1.885,-0.02
1.885,-0.032
1.885,-0.032
1.885,-0.042
1.886,-0.042
1.886,-0.05
1.886,-0.05
1.887,-0.058
1.887,-0.058
1.887,-0.05
1.887,-0.052
1.887,-0.038
1.888,-0.04
1.888,-0.037
1.888,-0.037
1.889,-0.032
1.889,-0.033
1.889,-0.028
1.889,-0.027
1.889,-0.018
1.89,-0.018
1.89,-0.008
1.89,-0.008
1.891,0.005
1.891,0.003
1.891,0.013
1.891,0.013
1.891,0.018
1.892,0.018
1.892,0.027
1.892,0.027
1.893,0.035
1.893,0.033
1.893,0.04
1.893,0.038
1.893,0.042
1.894,0.042
1.894,0.047
1.894,0.048
1.895,0.045
1.895,0.048
1.895,0.045
1.895,0.045
1.895,0.042
1.896,0.043
1.896,0.038
1.896,0.04
1.897,0.028
1.897,0.03
1.897,0.015
1.897,0.017
1.897,0.005
1.898,0.007
1.898,0.003
1.898,0.007
1.899,0.002
1.899,0.003
1.899,0.005
1.899,0.007
1.899,-0.002
1.9,0
1.9,0.005
1.9,0.003
1.901,0.007
1.901,0.005
1.901,-0.003
1.901,-0.002
1.901,-0.013
1.902,-0.012
1.902,-0.017
1.902,-0.017
1.903,-0.027
1.903,-0.027
1.903,-0.033
1.903,-0.033
1.903,-0.038
1.904,-0.037
1.904,-0.04
1.904,-0.038
1.905,-0.042
1.905,-0.042
1.905,-0.03
1.905,-0.03
1.905,-0.013
1.906,-0.013
1.906,-0.002
1.906,-0.002
1.907,0.005
1.907,0.003
1.907,0.008
1.907,0.01
1.907,0.038
1.908,0.038
1.908,0.062
1.908,0.063
1.909,0.055
1.909,0.055
1.909,0.033
1.909,0.03
1.909,-0.033
1.91,-0.035
1.91,-0.12
1.91,-0.125
1.911,-0.203
1.911,-0.213
1.911,-0.197
1.911,-0.195
1.911,-0.128
1.912,-0.127
1.912,-0.048
1.912,-0.045
1.913,0.018
1.913,0.02
1.913,0.057
1.913,0.057
1.913,0.068
1.914,0.072
1.914,0.062
1.914,0.06
1.915,0.045
1.915,0.045
1.915,0.028
1.915,0.028
1.915,0.023
1.916,0.022
1.916,0.023
1.916,0.023
1.917,0.033
1.917,0.035
1.917,0.047
1.917,0.048
1.917,0.057
1.918,0.055
1.918,0.06
1.918,0.063
1.919,0.057
1.919,0.058
1.919,0.047
1.919,0.047
1.919,0.033
1.92,0.033
1.92,0.022
1.92,0.022
1.921,0.013
1.921,0.015
1.921,0.008
1.921,0.005
1.921,0.012
1.922,0.015
1.922,0.082
1.922,0.085
1.923,0.173
1.923,0.177
1.923,0.288
1.923,0.293
1.923,0.433
1.924,0.442
1.924,0.587
1.924,0.562
1.925,-0.003
1.925,-0.042
1.925,-0.792
1.925,-0.792
1.925,-0.143
1.926,-0.378
1.926,0.63
1.926,0.25
1.927,-2.372
1.927,-1.938
1.927,-0.373
1.927,-0.3
1.927,0.09
1.928,0.04
1.928,0.393
1.928,0.41
1.929,0.368
1.929,0.365
1.929,0.277
1.929,0.273
1.929,0.2
1.93,0.195
1.93,0.117
1.93,0.115
1.931,0.08
1.931,0.078
1.931,0.063
1.931,0.063
1.931,0.06
1.932,0.062
1.932,0.053
1.932,0.053
1.933,0.04
1.933,0.04
1.933,0.02
1.933,0.018
1.933,0.008
1.934,0.007
1.934,0.012
1.934,0.005
1.935,0.01
1.935,0.01
1.935,0.015
1.935,0.015
1.935,0.022
1.936,0.022
1.936,0.018
1.936,0.018
1.937,0.023
1.937,0.018
1.937,0.022
1.937,0.022
1.938,0.018
1.938,0.018
1.938,0.015
1.938,0.015
1.938,0.02
1.939,0.013
1.939,0.017
1.939,0.015
1.94,0.01
1.94,0.01
1.94,0.015
1.94,0.015
1.94,0.022
1.941,0.023
1.941,0.028
1.941,0.028
1.942,0.035
1.942,0.032
1.942,0.037
1.942,0.037
1.942,0.015
1.943,0.013
1.943,-0.013
1.943,-0.013
1.944,-0.027
1.944,-0.027
1.944,-0.025
1.944,-0.027
1.944,-0.03
1.945,-0.028
1.945,-0.018
1.945,-0.018
1.946,-0.01
1.946,-0.01
1.946,-0.018
1.946,-0.02
1.946,-0.013
1.947,-0.013
1.947,-0.008
1.947,-0.008
1.948,0.002
1.948,-0.002
1.948,0.003
1.948,0.005
1.948,0.002
1.949,0.002
1.949,-0.008
1.949,-0.008
1.95,-0.022
1.95,-0.02
1.95,-0.03
1.95,-0.03
1.95,-0.038
1.951,-0.038
1.951,-0.042
1.951,-0.04
1.952,-0.037
1.952,-0.037
1.952,-0.028
1.952,-0.028
1.952,-0.02
1.953,-0.02
1.953,-0.015
1.953,-0.015
1.954,-0.008
1.954,-0.008
1.954,-0.01
1.954,-0.008
1.954,-0.005
1.955,-0.007
1.955,0
1.955,0.002
1.956,-0.005
1.956,-0.005
1.956,-0.002
1.956,-0.002
1.956,-0.007
1.957,-0.005
1.957,-0.017
1.957,-0.015
1.958,-0.02
1.958,-0.02
1.958,-0.017
1.958,-0.018
1.958,-0.015
1.959,-0.018
1.959,-0.013
1.959,-0.015
1.96,-0.01
1.96,-0.015
1.96,-0.012
1.96,-0.012
1.96,-0.015
1.961,-0.013
1.961,-0.008
1.961,-0.005
1.962,-0.01
1.962,-0.007
1.962,-0.003
1.962,-0.005
1.962,0.007
1.963,0.007
1.963,0.017
1.963,0.017
1.964,0.025
1.964,0.022
1.964,0.028
1.964,0.028
1.964,0.033
1.965,0.033
1.965,0.038
1.965,0.037
1.966,0.042
1.966,0.04
1.966,0.052
1.966,0.053
1.966,0.063
1.967,0.062
1.967,0.068
1.967,0.067
1.968,0.055
1.968,0.055
1.968,0.017
1.968,0.015
1.968,-0.037
1.969,-0.038
1.969,-0.073
1.969,-0.075
1.97,-0.068
1.97,-0.07
1.97,-0.058
1.97,-0.058
1.97,-0.048
1.971,-0.05
1.971,-0.042
1.971,-0.043
1.972,-0.035
1.972,-0.035
1.972,-0.032
1.972,-0.03
1.972,-0.022
1.973,-0.023
1.973,-0.017
1.973,-0.017
1.974,-0.01
1.974,-0.013
1.974,-0.007
1.974,-0.007
1.974,-0.01
1.975,-0.007
1.975,-0.012
1.975,-0.01
1.976,-0.018
1.976,-0.022
1.976,-0.015
1.976,-0.018
1.976,-0.008
1.977,-0.008
1.977,0
1.977,-0.003
1.978,0.015
1.978,0.013
1.978,0.028
1.978,0.03
1.978,0.035
1.979,0.035
1.979,0.027
1.979,0.028
1.98,0.022
1.98,0.02
1.98,0.025
1.98,0.022
1.98,0.025
1.981,0.023
1.981,0.02
1.981,0.023
1.982,0.032
1.982,0.03
1.982,0.043
1.982,0.043
1.982,0.06
1.983,0.06
1.983,0.087
1.983,0.088
1.984,0.11
1.984,0.11
1.984,0.132
1.984,0.132
1.984,0.173
1.985,0.177
1.985,0.237
1.985,0.288
1.986,-0.163
1.986,-0.212
1.986,-0.527
1.986,-0.553
1.986,-0.448
1.987,-0.437
1.987,-0.283
1.987,-0.278
1.988,-0.12
1.988,-0.113
1.988,0.037
1.988,0.042
1.988,0.162
1.989,0.167
1.989,0.257
1.989,0.26
1.99,0.302
1.99,0.283
1.99,-0.143
1.99,-0.175
1.99,-0.563
1.991,-0.567
1.991,-0.442
1.991,-0.43
1.992,-0.145
1.992,-0.135
1.992,0.075
1.992,0.083
1.992,0.195
1.993,0.198
1.993,0.24
1.993,0.238
1.994,0.245
1.994,0.245
1.994,0.232
1.994,0.232
1.994,0.197
1.995,0.182
1.995,0.215
1.995,0.215
1.996,0.122
1.996,0.12
1.996,0.095
1.996,0.093
1.996,0.058
1.997,0.058
1.997,0.03
1.997,0.03
1.998,0.01
1.998,0.008
1.998,-0.003
1.998,-0.003
1.998,-0.012
1.999,-0.012
1.999,-0.003
1.999,-0.003
2,0.003
2,0.002
2,0.013
2,0.013
2.001,0.023
2.001,0.022
2.001,0.017
2.001,0.017
2.002,0.013
2.002,0.1
2.002,0.015
2.002,0.01
2.002,0.012
2.003,0.005
2.003,0.005
2.003,-0.005
2.003,-0.003
2.004,-0.01
2.004,-0.007
2.004,-0.013
2.005,-0.012
2.005,-0.017
2.005,-0.013
2.005,-0.017
2.006,-0.017
2.006,-0.012
2.006,-0.013
2.006,-0.02
2.006,-0.018
2.007,-0.022
2.007,-0.022
2.007,-0.017
2.007,-0.02
2.008,-0.015
2.008,-0.017
2.008,-0.025
2.009,-0.023
2.009,-0.03
2.009,-0.027
2.009,-0.037
2.01,-0.033
2.01,-0.04
2.01,-0.038
2.01,-0.042
2.01,-0.043
2.011,-0.04
2.011,-0.045
2.011,-0.04
2.011,-0.042
2.012,-0.047
2.012,-0.047
2.012,-0.043
2.013,-0.043
2.013,-0.033
2.013,-0.033
2.013,-0.025
2.014,-0.025
2.014,-0.017
2.014,-0.017
2.014,-0.012
2.014,-0.01
2.015,-0.002
2.015,0
2.015,0.02
2.015,0.02
2.016,0.037
2.016,0.037
2.016,0.042
2.017,0.04
2.017,0.073
2.017,0.075
2.017,0.157
2.018,0.158
2.018,0.247
2.018,0.252
2.018,0.36
2.018,0.365
2.019,0.533
2.019,0.592
2.019,0.422
2.019,0.398
2.02,-0.478
2.02,-0.518
2.02,-0.822
2.021,-0.48
2.021,0.482
2.021,0.607
2.021,-2.018
2.022,-2.395
2.022,-1.377
2.022,-1.293
2.022,0.13
2.022,-0.013
2.023,0.233
2.023,0.235
2.023,0.35
2.023,0.362
2.024,0.322
2.024,0.318
2.024,0.252
2.025,0.25
2.025,0.153
2.025,0.152
2.025,0.112
2.026,0.11
2.026,0.088
2.026,0.088
2.026,0.08
2.026,0.078
2.027,0.067
2.027,0.065
2.027,0.05
2.027,0.052
2.028,0.04
2.028,0.04
2.028,0.028
2.029,0.027
2.029,0.012
2.029,0.01
2.029,0
2.03,-0.002
2.03,-0.012
2.03,-0.013
2.03,-0.028
2.03,-0.028
2.031,-0.037
2.031,-0.035
2.031,-0.04
2.031,-0.038
2.032,-0.032
2.032,-0.033
2.032,-0.027
2.033,-0.028
2.033,-0.022
2.033,-0.023
2.033,-0.01
2.034,-0.01
2.034,0.012
2.034,0.013
2.034,0.045
2.034,0.045
2.035,0.067
2.035,0.065
2.035,0.072
2.035,0.073
2.036,0.037
2.036,0.033
2.036,-0.038
2.037,-0.042
2.037,-0.153
2.037,-0.158
2.037,-0.207
2.038,-0.207
2.038,-0.175
2.038,-0.173
2.038,-0.1
2.038,-0.097
2.039,-0.028
2.039,-0.027
2.039,0.017
2.039,0.017
2.04,0.03
2.04,0.03
2.04,0.038
2.041,0.037
2.041,0.03
2.041,0.032
2.041,0.02
2.042,0.018
2.042,0.025
2.042,0.023
2.042,0.028
2.042,0.027
2.043,0.035
2.043,0.033
2.043,0.042
2.043,0.042
2.044,0.047
2.044,0.047
2.044,0.04
2.045,0.043
2.045,0.033
2.045,0.035
2.045,0.02
2.046,0.018
2.046,0.005
2.046,0.005
2.046,-0.002
2.046,-0.002
2.047,-0.01
2.047,-0.012
2.047,-0.005
2.047,-0.005
2.048,0.007
2.048,0.007
2.048,0.02
2.049,0.02
2.049,0.028
2.049,0.027
2.049,0.033
2.05,0.032
2.05,0.037
2.05,0.035
2.05,0.037
2.05,0.032
2.051,0.038
2.051,0.035
2.051,0.038
2.051,0.033
2.052,0.04
2.052,0.04
2.052,0.052
2.053,0.048
2.053,0.057
2.053,0.055
2.053,0.05
2.054,0.053
2.054,0.033
2.054,0.032
2.054,0.002
2.054,-0.002
2.055,-0.027
2.055,-0.028
2.055,-0.022
2.055,-0.022
2.056,-0.008
2.056,-0.008
2.056,-0.003
2.057,-0.003
2.057,-0.012
2.057,-0.013
2.057,-0.025
2.058,-0.025
2.058,-0.032
2.058,-0.027
2.058,-0.018
2.058,-0.018
2.059,0.002
2.059,0
2.059,0.01
2.059,0.012
2.06,0.007
2.06,0.007
2.06,0
2.061,0.003
2.061,-0.003
2.061,-0.003
2.061,-0.013
2.062,-0.008
2.062,-0.018
2.062,-0.015
2.062,-0.023
2.062,-0.022
2.063,-0.027
2.063,-0.025
2.063,-0.032
2.063,-0.028
2.064,-0.032
2.064,-0.03
2.064,-0.032
2.064,-0.033
2.065,-0.032
2.065,-0.03
2.065,-0.037
2.066,-0.038
2.066,-0.047
2.066,-0.045
2.066,-0.048
2.067,-0.05
2.067,-0.043
2.067,-0.045
2.067,-0.037
2.067,-0.037
2.068,-0.028
2.068,-0.03
2.068,-0.033
2.068,-0.033
2.069,-0.028
2.069,-0.032
2.069,-0.027
2.07,-0.03
2.07,-0.023
2.07,-0.027
2.07,-0.02
2.071,-0.018
2.071,-0.023
2.071,-0.018
2.071,-0.025
2.071,-0.02
2.072,-0.023
2.072,-0.02
2.072,-0.023
2.072,-0.017
2.073,-0.022
2.073,-0.018
2.073,-0.022
2.074,-0.022
2.074,-0.017
2.074,-0.018
2.074,-0.008
2.075,-0.012
2.075,-0.008
2.075,-0.01
2.075,-0.007
2.075,-0.005
2.076,-0.008
2.076,-0.008
2.076,-0.005
2.076,-0.007
2.077,0
2.077,0
2.077,0.008
2.078,0.007
2.078,0.017
2.078,0.015
2.078,0.025
2.079,0.025
2.079,0.04
2.079,0.042
2.079,0.058
2.079,0.06
2.08,0.073
2.08,0.073
2.08,0.088
2.08,0.09
2.081,0.113
2.081,0.117
2.081,0.148
2.082,0.15
2.082,0.21
2.082,0.213
2.082,0.315
2.083,0.322
2.083,0.443
2.083,0.353
2.083,-0.318
2.083,-0.352
2.084,-0.292
2.084,-0.285
2.084,-0.125
2.084,-0.123
2.085,-0.032
2.085,-0.027
2.085,0.09
2.086,0.095
2.086,0.172
2.086,0.175
2.086,0.222
2.087,0.223
2.087,0.243
2.087,0.237
2.087,-0.057
2.087,-0.073
2.088,-0.645
2.088,-0.698
2.088,-0.642
2.088,-0.633
2.089,-0.337
2.089,-0.325
2.089,-0.073
2.09,-0.065
2.09,0.075
2.09,0.08
2.09,0.135
2.091,0.137
2.091,0.142
2.091,0.135
2.091,0.113
2.091,0.112
2.092,0.087
2.092,0.07
2.092,0.09
2.092,0.115
2.093,0.062
2.093,0.057
2.093,0.033
2.094,0.033
2.094,0.037
2.094,0.038
2.094,0.035
2.095,0.037
2.095,0.028
2.095,0.028
2.095,0.02
2.095,0.02
2.096,0.012
2.096,0.013
2.096,0
2.096,-0.002
2.097,-0.008
2.097,-0.005
2.097,-0.01
2.098,-0.008
2.098,0.012
2.098,0.013
2.098,0.093
2.099,0.097
2.099,0.183
2.099,0.188
2.099,0.292
2.099,0.298
2.1,0.437
2.1,0.445
2.1,0.56
2.1,0.523
2.101,-0.11
2.101,-0.148
2.101,-0.813
2.102,-0.812
2.102,0.022
2.102,-0.287
2.102,0.842
2.103,-0.063
2.103,-2.415
2.103,-1.973
2.103,-0.345
2.103,-0.287
2.104,0.28
2.104,0.295
2.104,0.458
2.104,0.457
2.105,0.39
2.105,0.387
2.105,0.303
2.106,0.298
2.106,0.218
2.106,0.217
2.106,0.128
2.107,0.125
2.107,0.063
2.107,0.06
2.107,0.037
2.107,0.035
2.108,0.013
2.108,0.013
2.108,-0.007
2.108,-0.008
2.109,-0.018
2.109,-0.018
2.109,-0.037
2.11,-0.037
2.11,-0.05
2.11,-0.05
2.11,-0.055
2.111,-0.057
2.111,-0.053
2.111,-0.055
2.111,-0.048
2.111,-0.052
2.112,-0.047
2.112,-0.047
2.112,-0.05
2.112,-0.047
2.113,-0.045
2.113,-0.043
2.113,-0.048
2.114,-0.048
2.114,-0.043
2.114,-0.047
2.114,-0.035
2.115,-0.035
2.115,-0.015
2.115,-0.015
2.115,-0.003
2.115,-0.005
2.116,0.008
2.116,0.008
2.116,0.017
2.116,0.017
2.117,0.028
2.117,0.03
2.117,0.043
2.118,0.043
2.118,0.052
2.118,0.05
2.118,0.053
2.119,0.052
2.119,0.045
2.119,0.047
2.119,0.038
2.119,0.04
2.12,0.032
2.12,0.033
2.12,0.027
2.12,0.027
2.121,0.02
2.121,0.022
2.121,0.017
2.122,0.02
2.122,0.013
2.122,0.015
2.122,0.01
2.123,0.012
2.123,0.008
2.123,0.01
2.123,0.003
2.123,0.002
2.124,0.005
2.124,0.007
2.124,0.002
2.124,0.005
2.125,0.002
2.125,0.003
2.125,0
2.126,0.002
2.126,0.005
2.126,0
2.126,0.003
2.127,0.005
2.127,0
2.127,0.002
2.127,-0.005
2.127,-0.002
2.128,-0.005
2.128,-0.007
2.128,-0.002
2.128,-0.007
2.129,-0.003
2.129,-0.005
2.129,-0.008
2.13,-0.007
2.13,-0.005
2.13,-0.005
2.13,0
2.131,-0.002
2.131,0.002
2.131,0.002
2.131,0.003
2.131,0.003
2.132,0.007
2.132,0.003
2.132,0.008
2.132,0.005
2.133,0.012
2.133,0.01
2.133,0.008
2.134,0.012
2.134,0.007
2.134,0.008
2.134,0.003
2.135,0.005
2.135,0.002
2.135,0.003
2.135,-0.002
2.135,-0.002
2.136,-0.005
2.136,-0.003
2.136,-0.008
2.136,-0.007
2.137,-0.012
2.137,-0.012
2.137,-0.02
2.138,-0.022
2.138,-0.018
2.138,-0.022
2.138,-0.018
2.139,-0.02
2.139,-0.01
2.139,-0.01
2.139,-0.005
2.139,-0.007
2.14,0.002
2.14,0.002
2.14,0.008
2.14,0.007
2.141,0.012
2.141,0.012
2.141,0.02
2.142,0.02
2.142,0.03
2.142,0.03
2.142,0.04
2.143,0.04
2.143,0.037
2.143,0.038
2.143,0.032
2.143,0.033
2.144,0.038
2.144,0.037
2.144,0.042
2.144,0.04
2.145,0.043
2.145,0.04
2.145,0.027
2.146,0.025
2.146,0.017
2.146,0.017
2.146,0.023
2.147,0.022
2.147,0.035
2.147,0.035
2.147,0.038
2.147,0.038
2.148,0.027
2.148,0.027
2.148,-0.003
2.148,-0.005
2.149,-0.037
2.149,-0.038
2.149,-0.045
2.15,-0.043
2.15,-0.033
2.15,-0.033
2.15,-0.023
2.151,-0.023
2.151,-0.015
2.151,-0.015
2.151,-0.02
2.151,-0.018
2.152,-0.023
2.152,-0.023
2.152,-0.032
2.152,-0.032
2.153,-0.037
2.153,-0.032
2.153,-0.02
2.154,-0.022
2.154,-0.015
2.154,-0.017
2.154,-0.01
2.155,-0.01
2.155,-0.003
2.155,-0.003
2.155,-0.007
2.155,-0.007
2.156,-0.005
2.156,-0.005
2.156,-0.008
2.156,-0.008
2.157,-0.007
2.157,-0.005
2.157,-0.008
2.158,-0.01
2.158,-0.002
2.158,-0.002
2.158,0.005
2.159,0.008
2.159,0.013
2.159,0.013
2.159,0.022
2.159,0.02
2.16,0.023
2.16,0.022
2.16,0.028
2.16,0.025
2.161,0.03
2.161,0.028
2.161,0.018
2.162,0.018
2.162,0
2.162,-0.002
2.162,-0.022
2.163,-0.023
2.163,-0.042
2.163,-0.042
2.163,-0.052
2.163,-0.053
2.164,-0.047
2.164,-0.048
2.164,-0.04
2.164,-0.04
2.165,-0.028
2.165,-0.03
2.165,-0.017
2.166,-0.018
2.166,-0.007
2.166,-0.007
2.166,0.002
2.167,0.002
2.167,0.01
2.167,0.01
2.167,0.005
2.167,0.007
2.168,-0.008
2.168,-0.008
2.168,-0.018
2.168,-0.018
2.169,-0.023
2.169,-0.023
2.169,-0.013
2.17,-0.013
2.17,-0.003
2.17,-0.005
2.17,0.012
2.171,0.013
2.171,0.038
2.171,0.04
2.171,0.06
2.171,0.058
2.172,0.07
2.172,0.068
2.172,0.037
2.172,0.033
2.173,-0.038
2.173,-0.042
2.173,-0.138
2.174,-0.14
2.174,-0.18
2.174,-0.18
2.174,-0.15
2.175,-0.148
2.175,-0.1
2.175,-0.097
2.175,-0.052
2.175,-0.05
2.176,-0.015
2.176,-0.013
2.176,0.012
2.176,0.008
2.177,0.027
2.177,0.027
2.177,0.035
2.178,0.035
2.178,0.042
2.178,0.042
2.178,0.05
2.179,0.05
2.179,0.053
2.179,0.048
2.179,0.052
2.179,0.05
2.18,0.055
2.18,0.052
2.18,0.058
2.18,0.057
2.181,0.063
2.181,0.062
2.181,0.053
2.182,0.055
2.182,0.035
2.182,0.033
2.182,0.025
2.183,0.025
2.183,0.018
2.183,0.02
2.183,0.028
2.183,0.03
2.184,0.048
2.184,0.05
2.184,0.067
2.184,0.068
2.185,0.078
2.185,0.075
2.185,0.095
2.186,0.095
2.186,0.117
2.186,0.117
2.186,0.148
2.187,0.148
2.187,0.205
2.187,0.21
2.187,0.298
2.188,0.302
2.188,0.413
2.188,0.285
2.188,-0.375
2.188,-0.393
2.189,-0.325
2.189,-0.318
2.189,-0.125
2.189,-0.123
2.19,-0.03
2.19,-0.023
2.19,0.095
2.191,0.102
2.191,0.187
2.191,0.188
2.191,0.257
2.192,0.26
2.192,0.295
2.192,0.29
2.192,-0.008
2.192,-0.027
2.193,-0.582
2.193,-0.62
2.193,-0.558
2.193,-0.55
2.194,-0.267
2.194,-0.253
2.194,-0.03
2.195,-0.022
2.195,0.093
2.195,0.097
2.195,0.135
2.196,0.138
2.196,0.135
2.196,0.135
2.196,0.113
2.196,0.113
2.197,0.088
2.197,0.073
2.197,0.095
2.197,0.12
2.198,0.075
2.198,0.07
2.198,0.045
2.199,0.047
2.199,0.042
2.199,0.045
2.199,0.05
2.2,0.048
2.2,0.043
2.2,0.045
2.2,0.035
2.2,0.035
2.201,0.027
2.201,0.028
2.201,0.02
2.201,0.02
2.202,0.017
2.202,0.02
2.202,0.027
2.203,0.027
2.203,0.022
2.203,0.02
2.203,0.027
2.204,0.025
2.204,0.048
2.204,0.052
2.204,0.127
2.204,0.13
2.205,0.213
2.205,0.218
2.205,0.33
2.205,0.337
2.206,0.49
2.206,0.57
2.206,0.465
2.207,0.453
2.207,-0.32
2.207,-0.358
2.207,-0.798
2.208,-0.687
2.208,0.12
2.208,0.712
2.208,-1.323
2.208,-1.527
2.209,-2.508
2.209,-1.73
2.209,-0.033
2.209,0.003
2.21,0.187
2.21,0.13
2.21,0.397
2.211,0.405
2.211,0.363
2.211,0.36
2.211,0.267
2.212,0.263
2.212,0.192
2.212,0.188
2.212,0.142
2.212,0.137
2.213,0.078
2.213,0.077
2.213,0.058
2.213,0.058
2.214,0.053
2.214,0.053
2.214,0.038
2.215,0.038
2.215,0.027
2.215,0.025
2.215,0.013
2.216,0.015
2.216,0.007
2.216,0.01
2.216,0.005
2.216,0.007
2.217,0.003
2.217,0.005
2.217,0.002
2.217,0.002
2.218,-0.002
2.218,0
2.218,0.002
2.219,0.002
2.219,0.008
2.219,0.005
2.219,0.013
2.22,0.012
2.22,0.007
2.22,0.008
2.22,0.005
2.22,0.008
2.221,-0.002
2.221,-0.002
2.221,-0.01
2.221,-0.008
2.222,-0.015
2.222,-0.015
2.222,-0.02
2.223,-0.018
2.223,-0.022
2.223,-0.02
2.223,-0.023
2.224,-0.022
2.224,-0.027
2.224,-0.027
2.224,-0.023
2.224,-0.025
2.225,-0.022
2.225,-0.025
2.225,-0.018
2.225,-0.022
2.226,-0.018
2.226,-0.018
2.226,-0.013
2.227,-0.017
2.227,-0.013
2.227,-0.018
2.227,-0.013
2.228,-0.015
2.228,-0.01
2.228,-0.015
2.228,-0.01
2.228,-0.013
2.229,-0.01
2.229,-0.01
2.229,-0.013
2.229,-0.01
2.23,-0.013
2.23,-0.012
2.23,-0.01
2.231,-0.012
2.231,-0.008
2.231,-0.01
2.231,-0.007
2.232,-0.01
2.232,-0.003
2.232,-0.005
2.232,-0.007
2.232,-0.007
2.233,0
2.233,-0.002
2.233,0.003
2.233,0.002
2.234,0.008
2.234,0.007
2.234,0.012
2.235,0.01
2.235,0.013
2.235,0.013
2.235,0.017
2.236,0.013
2.236,0.018
2.236,0.017
2.236,0.005
2.236,0.007
2.237,-0.003
2.237,-0.003
2.237,-0.007
2.237,-0.007
2.238,-0.01
2.238,-0.008
2.238,-0.003
2.239,-0.007
2.239,-0.003
2.239,-0.005
2.239,0
2.24,0
2.24,0.012
2.24,0.012
2.24,0.023
2.24,0.025
2.241,0.032
2.241,0.032
2.241,0.007
2.241,0.005
2.242,-0.013
2.242,-0.013
2.242,-0.02
2.243,-0.018
2.243,-0.025
2.243,-0.025
2.243,-0.015
2.244,-0.018
2.244,-0.013
2.244,-0.012
2.244,-0.023
2.244,-0.023
2.245,-0.028
2.245,-0.028
2.245,-0.025
2.245,-0.023
2.246,-0.03
2.246,-0.027
2.246,-0.03
2.247,-0.028
2.247,-0.035
2.247,-0.035
2.247,-0.042
2.248,-0.04
2.248,-0.047
2.248,-0.042
2.248,-0.022
2.248,-0.02
2.249,-0.008
2.249,-0.008
2.249,-0.007
2.249,-0.005
2.25,-0.008
2.25,-0.008
2.25,-0.025
2.251,-0.025
2.251,-0.048
2.251,-0.053
2.251,-0.047
2.252,-0.045
2.252,-0.022
2.252,0.1
2.252,-0.022
2.252,-0.002
2.253,-0.002
2.253,0.008
2.253,0.01
2.253,0.007
2.254,0.008
2.254,0.012
2.254,0.013
2.255,0.005
2.255,0.007
2.255,0.003
2.255,0.007
2.256,0.003
2.256,0.002
2.256,0.007
2.256,0.003
2.256,0.012
2.257,0.013
2.257,0.022
2.257,0.023
2.257,0.028
2.258,0.025
2.258,0.008
2.258,0.007
2.259,-0.013
2.259,-0.013
2.259,-0.02
2.259,-0.02
2.26,-0.017
2.26,-0.023
2.26,-0.013
2.26,-0.012
2.26,0
2.261,0
2.261,0.007
2.261,0.007
2.261,0.012
2.262,0.012
2.262,0.007
2.262,0.01
2.263,0.003
2.263,0.005
2.263,0.002
2.263,0.003
2.264,-0.003
2.264,-0.003
2.264,-0.018
2.264,-0.02
2.264,-0.035
2.265,-0.035
2.265,-0.043
2.265,-0.043
2.265,-0.032
2.266,-0.032
2.266,-0.02
2.266,-0.02
2.267,-0.013
2.267,-0.015
2.267,-0.008
2.267,-0.01
2.268,-0.003
2.268,-0.003
2.268,0.008
2.268,0.008
2.268,0.018
2.269,0.015
2.269,0.023
2.269,0.022
2.269,0.028
2.27,0.025
2.27,0.027
2.27,0.027
2.271,0.023
2.271,0.025
2.271,0.02
2.271,0.022
2.272,0.015
2.272,0.018
2.272,0.015
2.272,0.013
2.272,0.02
2.273,0.02
2.273,0.013
2.273,0.017
2.273,0.012
2.274,0.012
2.274,0.018
2.274,0.015
2.275,0.022
2.275,0.022
2.275,0.018
2.275,0.022
2.276,0.018
2.276,0.02
2.276,0.013
2.276,0.015
2.276,0.008
2.277,0.01
2.277,0.005
2.277,0.005
2.277,-0.002
2.278,0.002
2.278,-0.005
2.278,-0.003
2.279,-0.012
2.279,-0.013
2.279,-0.028
2.279,-0.028
2.28,-0.038
2.28,-0.038
2.28,-0.035
2.28,-0.035
2.28,-0.038
2.281,-0.037
2.281,-0.04
2.281,-0.038
2.281,-0.033
2.282,-0.037
2.282,-0.043
2.282,-0.042
2.283,-0.045
2.283,-0.047
2.283,-0.04
2.283,-0.04
2.284,-0.035
2.284,-0.037
2.284,-0.027
2.284,-0.028
2.284,-0.015
2.285,-0.015
2.285,-0.003
2.285,-0.002
2.285,0.013
2.286,0.012
2.286,0.023
2.286,0.022
2.287,0.028
2.287,0.027
2.287,0.032
2.287,0.032
2.288,0.027
2.288,0.033
2.288,0.025
2.288,0.025
2.288,0.01
2.289,0.01
2.289,-0.002
2.289,-0.002
2.289,-0.01
2.29,-0.012
2.29,-0.002
2.29,-0.003
2.291,0.003
2.291,0.003
2.291,0.02
2.291,0.018
2.292,0.043
2.292,0.045
2.292,0.062
